
Integration time [ms]: 160,000
Averaging Nr. [scans]: 13
Smoothing Nr. [pixels]: 0
Data measured with spectrometer [name]: 2009305U1
Wave   ;Sample   ;Dark     ;Reference;Reflectance
[nm]   ;[counts] ;[counts] ;[counts] ;[%]

 175,72;  205,107;  191,519;  191,486; 0,00000
 176,32;  236,824;  226,381;  214,940; 0,00000
 176,92;  268,286;  241,524;  244,812;813,98497
 177,52;  267,147;  247,676;  245,839; 0,00000
 178,12;  249,233;  222,611;  217,278; 0,00000
 178,72;  266,889;  259,077;  248,897; 0,00000
 179,32;  256,661;  243,304;  231,741; 0,00000
 179,92;  257,609;  248,144;  237,554; 0,00000
 180,52;  247,963;  228,126;  237,935;202,23523
 181,12;  264,178;  232,682;  237,833;611,37138
 181,73;  278,794;  263,757;  264,029; 0,00000
 182,33;  372,452;  317,286;  327,322;549,69392
 182,93;  278,880;  258,060;  265,199;291,66274
 183,53;  239,569;  223,541;  225,512;813,41541
 184,13;  255,015;  226,770;  231,532;593,08792
 184,73;  285,313;  254,697;  264,670;306,99206
 185,33;  262,632;  232,099;  346,488;26,69254
 185,93;  262,885;  234,572;  343,963;25,88186
 186,53;  289,131;  246,720;  358,116;38,07231
 187,13;  308,180;  264,246;  412,664;29,60167
 187,73;  284,383;  228,801;  351,876;45,16099
 188,33;  274,638;  231,269;  359,775;33,74872
 188,93;  286,934;  241,675;  374,002;34,20234
 189,53;  291,263;  236,613;  379,198;38,32759
 190,13;  317,813;  276,331;  414,750;29,96834
 190,73;  261,992;  219,314;  352,281;32,09663
 191,34;  298,263;  248,296;  381,720;37,44951
 191,94;  274,118;  221,276;  358,118;38,61553
 192,54;  278,925;  259,775;  371,233;17,18114
 193,14;  294,679;  247,555;  368,494;38,96499
 193,74;  283,396;  243,865;  364,133;32,86880
 194,34;  282,602;  238,014;  369,577;33,89101
 194,94;  247,949;  207,324;  338,161;31,05028
 195,54;  224,571;  189,329;  331,243;24,83307
 196,14;  257,429;  216,165;  357,725;29,15001
 196,74;  254,340;  215,486;  327,390;34,72075
 197,34;  231,685;  195,926;  336,271;25,47906
 197,94;  252,774;  224,630;  362,240;20,45187
 198,54;  275,497;  226,165;  386,988;30,67498
 199,14;  238,531;  218,614;  377,550;12,53130
 199,74;  229,722;  191,614;  370,422;21,31216
 200,34;  219,519;  183,689;  369,521;19,28058
 200,94;  273,986;  218,082;  405,289;29,86241
 201,54;  244,266;  202,847;  404,126;20,57810
 202,14;  280,448;  220,609;  436,391;27,73115
 202,74;  249,005;  209,153;  447,622;16,71152
 203,34;  229,460;  192,066;  473,783;13,27388
 203,94;  211,325;  163,300;  464,363;15,95169
 204,54;  269,777;  246,937;  543,462; 7,70260
 205,14;  225,906;  185,307;  540,736;11,42273
 205,74;  281,002;  229,143;  624,348;13,12204
 206,34;  259,248;  197,610;  653,244;13,52805
 206,94;  254,030;  200,611;  693,120;10,84615
 207,54;  231,377;  184,687;  719,137; 8,73613
 208,14;  250,627;  195,455;  803,345; 9,07594
 208,74;  255,190;  198,230;  855,552; 8,66534
 209,34;  255,814;  193,229;  944,023; 8,33587
 209,94;  272,116;  199,537; 1044,543; 8,58912
 210,54;  270,008;  203,376; 1111,898; 7,33411
 211,14;  285,273;  212,922; 1222,339; 7,16754
 211,73;  275,879;  209,464; 1314,673; 6,00929
 212,33;  285,796;  222,082; 1403,956; 5,39088
 212,93;  285,885;  202,385; 1461,117; 6,63368
 213,53;  258,688;  170,923; 1512,962; 6,53971
 214,13;  282,134;  181,292; 1572,742; 7,24727
 214,73;  279,217;  172,302; 1608,237; 7,44572
 215,33;  252,808;  150,922; 1633,236; 6,87346
 215,93;  309,987;  194,451; 1783,978; 7,26854
 216,53;  272,033;  152,924; 1831,099; 7,09753
 217,13;  328,036;  215,607; 2029,263; 6,19903
 217,73;  323,599;  194,989; 2219,797; 6,35170
 218,33;  286,220;  149,983; 2354,982; 6,17857
 218,93;  341,907;  179,356; 2654,801; 6,56654
 219,53;  368,796;  172,214; 2901,699; 7,20217
 220,13;  361,836;  151,903; 3178,988; 6,93514
 220,73;  415,805;  174,152; 3474,978; 7,32098
 221,32;  419,036;  179,077; 3842,860; 6,54949
 221,92;  459,101;  174,981; 4170,791; 7,11043
 222,52;  452,931;  178,373; 4533,597; 6,30411
 223,12;  501,196;  176,988; 4906,673; 6,85475
 223,72;  536,156;  192,680; 5246,005; 6,79703
 224,32;  568,285;  176,448; 5603,170; 7,22050
 224,92;  576,036;  176,372; 5860,465; 7,03127
 225,52;  615,913;  187,457; 6182,069; 7,14734
 226,12;  636,836;  178,684; 6419,963; 7,34067
 226,72;  627,236;  148,377; 6719,830; 7,28695
 227,31;  664,987;  153,223; 7036,048; 7,43537
 227,91;  715,642;  189,458; 7401,206; 7,29620
 228,51;  761,402;  171,850; 7795,414; 7,73328
 229,11;  784,673;  172,070; 8048,723; 7,77745
 229,71;  811,906;  157,539; 8378,618; 7,95963
 230,31;  834,768;  162,677; 8740,754; 7,83499
 230,91;  880,956;  159,469; 9042,583; 8,12200
 231,51;  929,427;  152,605; 9274,862; 8,51568
 232,10;  957,239;  156,214; 9507,841; 8,56562
 232,70; 1015,986;  178,475; 9699,423; 8,79651
 233,30; 1076,183;  189,760; 9927,902; 9,10260
 233,90; 1081,088;  165,990;10050,274; 9,25811
 234,50; 1125,879;  171,451;10084,509; 9,62799
 235,10; 1146,190;  164,141;10103,619; 9,88029
 235,70; 1223,288;  183,459;10081,290;10,50563
 236,29; 1249,337;  182,077;10024,611;10,84335
 236,89; 1245,863;  158,776; 9855,716;11,21062
 237,49; 1255,288;  180,376; 9778,456;11,19924
 238,09; 1283,248;  172,610; 9429,552;11,99790
 238,69; 1323,389;  199,549; 9207,673;12,47585
 239,29; 1310,910;  165,918; 8939,888;13,04987
 239,89; 1311,189;  192,314; 8592,882;13,31904
 240,48; 1269,537;  168,379; 8220,540;13,67532
 241,08; 1304,857;  166,611; 7864,646;14,78619
 241,68; 1280,870;  179,455; 7641,109;14,76100
 242,28; 1241,313;  171,299; 7287,026;15,03731
 242,88; 1282,864;  196,830; 7036,382;15,87872
 243,48; 1284,328;  201,761; 6783,508;16,44802
 244,07; 1237,854;  183,382; 6590,809;16,45704
 244,67; 1286,162;  192,916; 6405,549;17,59714
 245,27; 1265,340;  186,310; 6269,980;17,73651
 245,87; 1292,294;  194,678; 6247,872;18,13285
 246,47; 1295,436;  181,617; 6208,147;18,48192
 247,06; 1290,362;  172,841; 6224,536;18,46624
 247,66; 1353,223;  180,224; 6324,025;19,09241
 248,26; 1397,226;  196,232; 6477,766;19,11945
 248,86; 1437,433;  190,232; 6660,735;19,27517
 249,46; 1455,159;  151,374; 6845,606;19,47624
 250,05; 1562,002;  189,072; 7218,028;19,53249
 250,65; 1592,156;  158,465; 7524,316;19,46402
 251,25; 1674,023;  170,535; 8010,795;19,17651
 251,85; 1772,316;  156,161; 8552,748;19,24776
 252,44; 1885,402;  145,384; 9145,462;19,33336
 253,04; 2045,113;  186,614; 9842,055;19,24820
 253,64; 2113,731;  150,389;10539,607;18,89788
 254,24; 2301,273;  195,456;11361,387;18,85930
 254,84; 2413,928;  172,682;12305,836;18,47208
 255,43; 2606,946;  178,461;13226,711;18,61158
 256,03; 2784,457;  172,388;14130,990;18,71297
 256,63; 2938,691;  180,622;15117,241;18,46515
 257,23; 3067,313;  171,006;16015,952;18,27905
 257,82; 3225,879;  182,243;16908,150;18,19714
 258,42; 3311,562;  147,938;17764,253;17,95849
 259,02; 3514,066;  187,922;18666,985;17,99953
 259,62; 3600,592;  167,170;19291,834;17,95285
 260,21; 3658,796;  174,538;19848,507;17,70999
 260,81; 3732,070;  174,454;20382,836;17,60466
 261,41; 3742,328;  154,474;20849,883;17,33647
 262,01; 3834,291;  207,557;21322,768;17,17593
 262,60; 3831,236;  161,160;21668,644;17,06418
 263,20; 3845,140;  163,925;22129,526;16,75900
 263,80; 3885,168;  198,096;22143,160;16,80137
 264,40; 3823,476;  157,018;22440,048;16,45404
 264,99; 3838,672;  171,250;22611,931;16,34274
 265,59; 3799,168;  165,258;22695,679;16,12890
 266,19; 3807,897;  157,480;22951,570;16,01475
 266,78; 3872,648;  207,177;23081,355;16,02449
 267,38; 3771,675;  173,026;23060,175;15,72345
 267,98; 3726,337;  161,176;23065,252;15,56562
 268,58; 3675,426;  179,026;23071,394;15,27321
 269,17; 3676,515;  163,570;23156,529;15,27835
 269,77; 3640,531;  199,624;22992,643;15,09632
 270,37; 3523,242;  155,635;22842,399;14,84393
 270,96; 3542,562;  207,243;22664,798;14,85166
 271,56; 3445,519;  173,622;22521,767;14,64057
 272,16; 3387,765;  171,244;22350,314;14,50250
 272,75; 3361,848;  172,782;22239,717;14,45178
 273,35; 3344,989;  176,627;22288,149;14,32901
 273,95; 3298,423;  167,936;22291,511;14,15001
 274,54; 3261,110;  146,687;22325,343;14,04243
 275,14; 3333,208;  175,472;22688,769;14,02609
 275,74; 3272,792;  145,783;22698,525;13,86532
 276,33; 3334,888;  197,471;23172,509;13,65577
 276,93; 3345,617;  180,378;23513,454;13,56546
 277,53; 3406,143;  169,231;24008,482;13,57808
 278,12; 3465,854;  149,005;24511,251;13,61471
 278,72; 3598,408;  199,155;25045,285;13,68122
 279,32; 3629,826;  162,463;25561,472;13,65157
 279,91; 3725,626;  155,465;26301,822;13,65453
 280,51; 3802,670;  172,230;26734,257;13,66778
 281,11; 3897,839;  180,311;27427,118;13,64390
 281,70; 3988,306;  157,696;27831,402;13,84206
 282,30; 4102,134;  158,392;28455,152;13,93708
 282,90; 4175,106;  175,392;28714,479;14,01487
 283,49; 4294,334;  180,011;29265,866;14,14544
 284,09; 4434,522;  196,466;29706,031;14,36163
 284,69; 4519,531;  195,233;29993,775;14,51178
 285,28; 4654,254;  183,005;30359,468;14,81701
 285,88; 4797,737;  206,014;30554,411;15,13004
 286,47; 4844,531;  168,546;30631,454;15,34977
 287,07; 4978,790;  199,155;30623,447;15,70993
 287,67; 5089,097;  189,761;30817,047;15,99664
 288,26; 5190,350;  169,925;30760,410;16,41172
 288,86; 5381,934;  175,543;30852,165;16,97185
 289,46; 5600,316;  182,772;30893,103;17,64079
 290,05; 5754,602;  170,766;30991,385;18,11721
 290,65; 6002,460;  169,931;31207,431;18,79188
 291,24; 6240,919;  183,847;31324,458;19,45072
 291,84; 6501,537;  194,930;31426,472;20,19307
 292,44; 6675,937;  166,452;31550,147;20,74161
 293,03; 7033,756;  241,539;31674,721;21,60843
 293,63; 7199,396;  164,930;31864,697;22,19091
 294,22; 7398,771;  196,465;32001,316;22,64531
 294,82; 7601,463;  175,633;31976,361;23,35113
 295,41; 7652,230;  166,927;31701,402;23,73689
 296,01; 7842,359;  214,015;31546,618;24,34635
 296,61; 7934,565;  186,155;31399,312;24,82418
 297,20; 7932,248;  192,860;30949,353;25,16343
 297,80; 8007,177;  188,457;30910,298;25,45004
 298,39; 7998,469;  163,161;30481,286;25,84365
 298,99; 8097,734;  191,089;30377,195;26,19300
 299,58; 8077,125;  192,839;30282,139;26,20296
 300,18; 8124,993;  189,688;30016,711;26,60441
 300,78; 8106,734;  174,384;29772,955;26,79978
 301,37; 8151,537;  190,329;29760,979;26,92267
 301,97; 8189,836;  176,080;29827,091;27,02692
 302,56; 8204,968;  176,700;29648,270;27,24072
 303,16; 8240,143;  159,164;29629,421;27,42080
 303,75; 8219,851;  173,613;29682,510;27,26716
 304,35; 8367,688;  165,834;29957,757;27,53046
 304,94; 8381,516;  187,849;30010,558;27,47459
 305,54; 8405,343;  195,154;29870,013;27,66716
 306,13; 8399,694;  139,218;29866,698;27,78734
 306,73; 8342,987;  154,914;29594,398;27,81323
 307,33; 8364,467;  181,531;29596,215;27,81922
 307,92; 8438,466;  181,616;29674,734;27,99585
 308,52; 8514,214;  161,241;30113,941;27,88721
 309,11; 8662,845;  166,631;30634,145;27,88614
 309,71; 8752,685;  155,634;30744,044;28,10558
 310,30; 8809,768;  159,771;31007,254;28,04118
 310,90; 9000,999;  192,617;31364,177;28,25775
 311,49; 9001,051;  179,002;31494,531;28,17148
 312,09; 8984,627;  150,842;31694,108;28,00529
 312,68; 9175,611;  203,769;32062,500;28,16133
 313,28; 9194,543;  148,539;32155,195;28,26288
 313,87; 9182,079;  147,002;32277,050;28,12033
 314,47; 9276,180;  172,860;32460,552;28,19440
 315,06; 9310,666;  156,077;32557,804;28,25340
 315,66; 9344,550;  162,765;32782,723;28,14775
 316,25; 9261,014;  140,548;32727,606;27,98800
 316,85; 9285,365;  136,611;32728,331;28,07079
 317,44; 9338,476;  158,553;32934,054;28,00849
 318,04; 9229,509;  138,392;32953,723;27,70387
 318,63; 9242,227;  145,222;33027,981;27,66497
 319,22; 9242,260;  170,009;33123,668;27,53033
 319,82; 9181,122;  169,698;33174,968;27,30299
 320,41; 9188,651;  164,239;33110,840;27,39103
 321,01; 9168,411;  170,228;33235,514;27,21338
 321,60; 9127,494;  167,697;33353,128;26,99919
 322,20; 9058,146;  161,539;33306,047;26,84188
 322,79; 9074,676;  196,462;33478,541;26,67566
 323,39; 9048,540;  163,451;33505,425;26,64836
 323,98; 8949,036;  146,615;33346,321;26,51355
 324,58; 8945,993;  165,856;33324,986;26,47879
 325,17; 8868,011;  171,086;33255,271;26,28726
 325,76; 8797,870;  187,464;33026,705;26,21987
 326,36; 8622,307;  137,997;32587,456;26,14623
 326,95; 8585,423;  183,081;32303,069;26,15923
 327,55; 8433,605;  155,544;31954,546;26,03245
 328,14; 8294,297;  152,456;31669,956;25,83276
 328,74; 8181,162;  192,085;31195,168;25,76865
 329,33; 8059,482;  178,920;30908,649;25,64475
 329,92; 7847,832;  152,861;30305,305;25,52022
 330,52; 7697,467;  160,225;29683,788;25,52958
 331,11; 7540,196;  162,620;29303,557;25,31688
 331,71; 7385,165;  168,618;28648,438;25,33916
 332,30; 7220,285;  184,541;28346,327;24,98330
 332,89; 7121,534;  210,383;27737,003;25,10716
 333,49; 6945,510;  171,620;27301,652;24,96823
 334,08; 6782,596;  169,159;26966,501;24,67945
 334,68; 6635,008;  174,775;26522,251;24,51936
 335,27; 6506,150;  170,839;26254,324;24,28859
 335,86; 6469,811;  220,082;25924,326;24,31400
 336,46; 6393,368;  186,992;25644,406;24,37944
 337,05; 6262,331;  164,620;25591,314;23,98153
 337,65; 6216,863;  148,621;25424,219;24,00830
 338,24; 6224,931;  212,538;25449,418;23,82384
 338,83; 6194,140;  192,230;25322,071;23,88360
 339,43; 6125,540;  162,316;25317,303;23,70593
 340,02; 6067,623;  168,471;25204,126;23,56300
 340,61; 6091,350;  154,385;25279,682;23,62943
 341,21; 6088,700;  192,931;25300,629;23,48192
 341,80; 6056,885;  166,083;25175,412;23,55442
 342,40; 5995,214;  182,147;25335,441;23,11056
 342,99; 6013,765;  177,306;25400,234;23,13950
 343,58; 6042,559;  173,228;25552,957;23,12606
 344,18; 6070,987;  181,535;25673,231;23,10341
 344,77; 6080,134;  152,087;26017,069;22,91920
 345,36; 6127,270;  152,158;26354,530;22,80370
 345,96; 6219,347;  204,074;26514,816;22,86242
 346,55; 6234,297;  148,835;26760,815;22,86738
 347,14; 6340,011;  148,147;27187,191;22,89972
 347,74; 6387,027;  142,212;27508,203;22,81962
 348,33; 6492,987;  160,752;28244,109;22,54800
 348,92; 6612,682;  180,131;28836,764;22,44699
 349,52; 6701,525;  146,980;29272,577;22,50441
 350,11; 6715,629;  166,087;29417,410;22,39058
 350,70; 6752,937;  157,155;29458,240;22,51037
 351,29; 6650,014;  154,792;29074,266;22,45968
 351,89; 6645,836;  177,938;29185,870;22,29700
 352,48; 6633,910;  139,693;29141,337;22,39258
 353,07; 6630,282;  171,915;29109,592;22,31819
 353,67; 6585,888;  179,977;29116,544;22,13777
 354,26; 6505,328;  165,993;28760,313;22,16991
 354,85; 6484,316;  177,303;28634,543;22,16312
 355,45; 6424,746;  152,237;28403,279;22,20275
 356,04; 6382,863;  168,222;28404,482;22,00944
 356,63; 6374,180;  191,004;28218,074;22,06144
 357,22; 6322,445;  176,020;28075,419;22,03067
 357,82; 6273,331;  177,402;27867,785;22,01461
 358,41; 6207,488;  178,772;27794,578;21,83067
 359,00; 6214,011;  153,316;27598,963;22,08253
 359,60; 6182,922;  178,461;27560,373;21,92857
 360,19; 6120,559;  175,067;27301,935;21,91735
 360,78; 6097,306;  166,929;27225,129;21,91712
 361,37; 6035,497;  165,005;26908,077;21,95145
 361,97; 6062,685;  174,003;26860,887;22,06583
 362,56; 5946,045;  145,549;26577,032;21,94540
 363,15; 5982,916;  194,237;26303,342;22,17111
 363,74; 5854,688;  168,860;26023,083;21,99187
 364,34; 5778,349;  187,624;25690,124;21,92226
 364,93; 5655,291;  151,704;25203,284;21,96902
 365,52; 5588,580;  158,389;24911,711;21,93722
 366,11; 5533,943;  169,316;24585,008;21,97205
 366,71; 5451,876;  154,701;24238,207;21,99503
 367,30; 5376,097;  165,697;23887,287;21,96480
 367,89; 5342,885;  201,996;23672,088;21,90400
 368,48; 5309,377;  178,551;23411,826;22,08395
 369,07; 5232,399;  170,693;22951,471;22,21920
 369,67; 5200,082;  191,704;22739,631;22,21214
 370,26; 5135,934;  167,000;22519,906;22,22948
 370,85; 5062,186;  161,774;22237,512;22,19818
 371,44; 5024,860;  165,157;22032,849;22,22321
 372,03; 4956,282;  150,547;21881,015;22,11519
 372,63; 4933,777;  148,158;21489,600;22,42407
 373,22; 4933,990;  162,309;21189,979;22,69239
 373,81; 4828,946;  154,236;20916,621;22,51529
 374,40; 4794,153;  165,917;20720,540;22,51676
 374,99; 4739,254;  154,929;20468,887;22,56736
 375,59; 4716,494;  159,841;20201,958;22,73539
 376,18; 4746,029;  181,698;20077,213;22,94151
 376,77; 4734,048;  173,464;19852,848;23,17442
 377,36; 4731,082;  189,159;19814,532;23,14312
 377,95; 4657,103;  169,162;19639,334;23,05034
 378,55; 4634,103;  150,920;19462,283;23,21526
 379,14; 4644,303;  174,005;19361,333;23,29818
 379,73; 4637,946;  160,085;19264,769;23,43855
 380,32; 4667,925;  181,003;19354,470;23,40172
 380,91; 4671,940;  157,320;19136,857;23,78678
 381,50; 4698,389;  183,241;19149,288;23,80648
 382,10; 4703,694;  153,003;19045,162;24,08772
 382,69; 4682,891;  140,467;18996,353;24,09022
 383,28; 4732,171;  172,471;18951,478;24,28084
 383,87; 4720,460;  152,164;18828,773;24,45999
 384,46; 4698,029;  152,402;18778,418;24,40472
 385,05; 4748,996;  193,241;18749,782;24,55067
 385,64; 4794,251;  165,009;18796,701;24,84607
 386,24; 4805,648;  157,479;18710,830;25,05299
 386,83; 4851,319;  181,249;18770,672;25,12219
 387,42; 4910,402;  172,393;18884,905;25,32001
 388,01; 4991,574;  180,794;19073,879;25,46318
 388,60; 5086,282;  169,631;19409,038;25,55510
 389,19; 5161,257;  154,264;19546,738;25,81926
 389,78; 5251,589;  158,108;19700,810;26,06334
 390,37; 5474,835;  213,175;20191,011;26,33749
 390,96; 5483,968;  166,710;20351,286;26,34317
 391,56; 5597,017;  166,882;20451,610;26,76957
 392,15; 5703,155;  163,491;20695,832;26,98019
 392,74; 5763,614;  132,663;20900,341;27,11401
 393,33; 5908,285;  157,499;21161,285;27,37976
 393,92; 6063,971;  166,438;21593,886;27,52326
 394,51; 6154,297;  153,345;21704,972;27,84454
 395,10; 6291,537;  185,762;21908,982;28,10713
 395,69; 6366,423;  172,298;22015,194;28,35762
 396,28; 6468,349;  180,230;22096,663;28,69134
 396,87; 6539,924;  176,015;22212,768;28,87862
 397,46; 6670,272;  174,332;22389,836;29,24057
 398,06; 6743,656;  185,191;22498,999;29,39196
 398,65; 6832,068;  163,451;22630,643;29,68158
 399,24; 6966,923;  188,149;22754,828;30,03887
 399,83; 7000,015;  155,424;22728,789;30,32154
 400,42; 7146,919;  197,771;22877,609;30,64020
 401,01; 7222,048;  158,970;22988,168;30,93879
 401,60; 7289,632;  182,878;22929,712;31,24283
 402,19; 7358,053;  203,773;22941,894;31,46381
 402,78; 7493,723;  205,310;22956,374;32,03548
 403,37; 7474,107;  189,151;22829,248;32,17723
 403,96; 7469,574;  181,234;22622,689;32,47713
 404,55; 7531,964;  182,405;22586,377;32,80471
 405,14; 7539,274;  175,874;22450,519;33,05732
 405,73; 7616,482;  181,896;22343,367;33,54735
 406,32; 7700,392;  183,732;22345,064;33,91790
 406,91; 7635,527;  178,579;21967,375;34,22377
 407,50; 7642,489;  181,465;21751,722;34,58941
 408,09; 7657,421;  151,954;21563,625;35,05316
 408,68; 7663,692;  173,436;21473,709;35,16507
 409,27; 7669,526;  163,333;21246,772;35,60232
 409,86; 7731,240;  172,196;21121,603;36,08238
 410,45; 7800,038;  190,838;21022,469;36,52715
 411,04; 7828,961;  204,786;20952,857;36,74643
 411,63; 7782,162;  193,641;20688,927;37,02569
 412,22; 7780,474;  197,965;20532,710;37,28844
 412,81; 7779,683;  201,866;20271,681;37,75728
 413,40; 7755,628;  205,146;20048,553;38,05033
 413,99; 7717,225;  238,232;19682,137;38,46446
 414,58; 7593,446;  167,303;19278,259;38,85804
 415,17; 7607,874;  184,328;19139,167;39,16438
 415,76; 7602,950;  172,659;18944,690;39,58171
 416,35; 7612,175;  159,493;18859,431;39,85405
 416,94; 7729,357;  193,731;18884,203;40,31801
 417,53; 7837,486;  179,018;19111,182;40,45215
 418,12; 7934,861;  173,089;19221,766;40,74704
 418,71; 8125,372;  192,376;19514,718;41,05608
 419,30; 8284,222;  189,703;19578,357;41,74874
 419,89; 8400,409;  174,006;19798,096;41,91992
 420,48; 8580,957;  201,684;20076,557;42,16013
 421,07; 8680,963;  188,064;20149,470;42,54660
 421,66; 8717,539;  166,282;20169,254;42,74993
 422,25; 8761,481;  170,565;20084,052;43,14119
 422,84; 8816,927;  208,099;20020,387;43,45196
 423,43; 8755,970;  187,340;19716,558;43,87595
 424,02; 8736,745;  204,643;19509,009;44,19779
 424,60; 8595,758;  174,152;19135,956;44,41353
 425,19; 8601,524;  191,398;18867,548;45,03137
 425,78; 8601,398;  204,550;18828,493;45,08630
 426,37; 8561,816;  209,232;18675,167;45,23239
 426,96; 8556,007;  184,694;18627,269;45,39124
 427,55; 8546,472;  178,446;18405,796;45,90917
 428,14; 8461,201;  171,824;18210,337;45,95377
 428,73; 8487,266;  193,837;18109,465;46,29159
 429,32; 8528,625;  200,388;18035,870;46,69477
 429,91; 8613,318;  217,144;18027,245;47,14276
 430,50; 8643,712;  203,674;17922,001;47,63451
 431,08; 8542,780;  231,204;17790,207;47,33512
 431,67; 8536,687;  254,427;17645,625;47,62329
 432,26; 8532,127;  273,343;17443,178;48,10055
 432,85; 8439,432;  282,345;17148,684;48,36312
 433,44; 8304,577;  299,796;16804,357;48,50042
 434,03; 8169,137;  309,473;16399,778;48,84720
 434,62; 8068,023;  271,872;16063,336;49,36940
 435,21; 7982,038;  283,113;15909,450;49,26891
 435,79; 7957,675;  278,402;15782,611;49,53025
 436,38; 7923,479;  276,618;15723,949;49,50280
 436,97; 7939,974;  279,000;15590,912;50,03277
 437,56; 7861,073;  276,209;15432,003;50,04597
 438,15; 7873,900;  237,599;15359,670;50,49772
 438,74; 7935,423;  262,982;15371,844;50,78107
 439,33; 7970,934;  225,062;15379,396;51,11325
 439,91; 7963,722;  187,744;15453,700;50,93672
 440,50; 8047,119;  237,281;15497,506;51,17774
 441,09; 8103,091;  236,577;15605,746;51,18373
 441,68; 8156,301;  226,794;15592,005;51,60688
 442,27; 8179,867;  208,800;15526,973;52,03667
 442,86; 8204,273;  190,926;15618,999;51,94004
 443,44; 8294,350;  198,239;15634,063;52,45014
 444,03; 8316,366;  252,618;15656,216;52,34977
 444,62; 8260,202;  193,079;15499,248;52,70504
 445,21; 8204,418;  211,467;15270,256;53,07831
 445,80; 8222,304;  232,452;15293,612;53,04938
 446,39; 8121,639;  246,532;15035,740;53,24902
 446,97; 7994,618;  187,899;14795,739;53,44198
 447,56; 7887,646;  191,425;14604,710;53,39672
 448,15; 7820,726;  198,899;14427,208;53,56804
 448,74; 7748,147;  220,513;14189,352;53,88876
 449,33; 7718,566;  200,350;14136,677;53,94690
 449,91; 7592,492;  201,951;13859,162;54,11457
 450,50; 7467,148;  182,184;13693,054;53,91928
 451,09; 7499,520;  206,567;13569,870;54,57448
 451,68; 7436,757;  227,253;13481,362;54,39448
 452,26; 7475,298;  220,093;13403,982;55,03084
 452,85; 7369,105;  198,943;13360,190;54,47935
 453,44; 7425,526;  219,077;13312,491;55,03873
 454,03; 7339,385;  197,858;13327,613;54,39192
 454,61; 7363,142;  185,691;13289,071;54,77557
 455,20; 7488,086;  209,069;13479,934;54,84961
 455,79; 7517,129;  214,696;13459,602;55,13390
 456,38; 7537,560;  224,212;13555,954;54,85666
 456,97; 7542,939;  200,600;13592,776;54,82559
 457,55; 7560,179;  196,130;13600,224;54,93880
 458,14; 7556,274;  220,295;13573,980;54,93599
 458,73; 7521,948;  216,898;13484,112;55,06092
 459,31; 7575,250;  232,193;13586,777;54,98529
 459,90; 7585,545;  251,200;13604,728;54,92440
 460,49; 7672,619;  269,896;13688,038;55,16951
 461,08; 7657,853;  198,341;13829,795;54,72279
 461,66; 7680,542;  208,579;13871,714;54,68703
 462,25; 7737,748;  204,259;13941,058;54,84166
 462,84; 7772,084;  237,801;14034,529;54,60920
 463,43; 7704,185;  187,630;13949,598;54,61832
 464,01; 7706,453;  195,086;13943,406;54,63480
 464,60; 7714,275;  247,865;13873,776;54,79567
 465,19; 7584,881;  187,082;13654,917;54,92939
 465,77; 7557,576;  209,230;13609,383;54,83778
 466,36; 7506,502;  217,630;13468,566;55,00647
 466,95; 7295,222;  202,321;13203,127;54,55740
 467,53; 7136,103;  196,838;12918,904;54,54511
 468,12; 7039,869;  227,451;12626,842;54,94155
 468,71; 6876,592;  220,927;12418,817;54,56407
 469,29; 6764,607;  193,219;12210,569;54,68251
 469,88; 6603,263;  199,752;11986,018;54,33027
 470,47; 6719,638;  249,510;12106,153;54,56965
 471,06; 6611,894;  216,432;12121,030;53,72262
 471,64; 6644,897;  229,282;12183,743;53,66712
 472,23; 6650,368;  188,259;12228,146;53,67250
 472,81; 6674,998;  190,501;12284,568;53,61718
 473,40; 6739,365;  196,413;12468,504;53,31570
 473,99; 6916,460;  273,412;12629,363;53,76395
 474,57; 6840,417;  199,105;12718,704;53,04732
 475,16; 6944,617;  210,267;12926,140;52,96018
 475,75; 6973,965;  228,866;13002,768;52,80374
 476,33; 7002,749;  233,550;13063,774;52,75979
 476,92; 6984,543;  239,641;13125,500;52,34344
 477,51; 7000,085;  222,861;13194,398;52,24688
 478,09; 6978,122;  217,323;13186,654;52,12913
 478,68; 6967,780;  229,088;13142,473;52,18378
 479,27; 6972,749;  246,866;13202,831;51,91341
 479,85; 6903,226;  215,704;13235,564;51,36401
 480,44; 6974,869;  219,315;13332,746;51,51630
 481,02; 7645,143;  216,923;15223,998;49,49812
 481,61; 8494,734;  253,388;16832,268;49,70991
 482,20; 8994,189;  236,230;17846,529;49,73203
 482,78; 9365,054;  273,548;18530,404;49,79776
 483,37; 9552,694;  250,449;19003,367;49,60425
 483,95; 9752,620;  284,754;19237,862;49,95416
 484,54; 9700,888;  291,851;19346,842;49,37833
 485,13; 9666,322;  253,052;19237,891;49,58309
 485,71; 9501,048;  247,594;19011,303;49,31570
 486,30; 9385,624;  283,902;18742,020;49,31013
 486,88; 9167,057;  317,284;18346,123;49,08676
 487,47; 8827,337;  300,281;17589,841;49,31910
 488,05; 8450,297;  284,431;16764,992;49,54848
 488,64; 7813,178;  289,268;15436,548;49,67169
 489,23; 6923,925;  287,813;13403,608;50,59634
 489,81; 5942,147;  294,579;11755,569;49,27644
 490,40; 5606,538;  243,193;11302,629;48,49564
 490,98; 5430,338;  236,650;11124,761;47,70054
 491,57; 5384,590;  255,427;11095,592;47,31628
 492,15; 5336,750;  233,033;10996,937;47,41511
 492,74; 5260,359;  242,507;10833,893;47,37673
 493,32; 5227,285;  252,343;10845,750;46,96262
 493,91; 5130,959;  235,875;10701,946;46,77098
 494,50; 5099,445;  241,782;10673,204;46,56760
 495,08; 5019,239;  233,475;10579,732;46,25600
 495,67; 5030,421;  236,569;10566,058;46,40938
 496,25; 4912,310;  190,252;10474,505;45,91542
 496,84; 4898,301;  202,339;10436,707;45,88424
 497,42; 4817,759;  194,095;10452,287;45,07290
 498,01; 4792,181;  218,106;10343,209;45,17559
 498,59; 4753,990;  186,324;10299,944;45,16351
 499,18; 4708,895;  187,259;10242,521;44,96786
 499,76; 4671,202;  198,021;10174,575;44,83694
 500,35; 4576,966;  202,009;10037,163;44,48285
 500,93; 4480,427;  183,865; 9971,333;43,89861
 501,52; 4449,252;  193,786; 9918,412;43,75968
 502,10; 4439,190;  203,310; 9872,661;43,80729
 502,69; 4338,113;  189,766; 9709,597;43,57585
 503,27; 4224,393;  171,243; 9539,466;43,26488
 503,86; 4181,101;  188,614; 9468,596;43,02257
 504,44; 4113,218;  176,455; 9385,353;42,74956
 505,03; 4007,073;  152,532; 9109,013;43,03634
 505,61; 3958,310;  171,611; 9022,948;42,78110
 506,19; 3888,990;  201,763; 8915,456;42,31532
 506,78; 3766,504;  164,597; 8724,724;42,07773
 507,36; 3685,849;  169,533; 8542,528;41,99592
 507,95; 3629,449;  174,131; 8423,391;41,88640
 508,53; 3566,218;  177,982; 8358,917;41,41624
 509,12; 3483,375;  182,055; 8156,607;41,39818
 509,70; 3444,298;  200,745; 8071,460;41,21040
 510,29; 3356,489;  200,047; 7914,882;40,91393
 510,87; 3289,200;  162,059; 7730,674;41,31721
 511,46; 3191,307;  166,826; 7573,303;40,83563
 512,04; 3108,409;  173,358; 7446,115;40,35678
 512,62; 3045,267;  178,441; 7338,558;40,03882
 513,21; 2964,975;  153,585; 7126,451;40,31900
 513,79; 2881,514;  176,951; 7032,609;39,45009
 514,38; 2840,788;  155,188; 6900,213;39,81601
 514,96; 2806,526;  193,189; 6805,625;39,52154
 515,54; 2702,566;  168,878; 6674,648;38,94525
 516,13; 2683,240;  183,030; 6581,831;39,07310
 516,71; 2607,025;  163,638; 6470,795;38,73991
 517,30; 2559,960;  159,785; 6343,152;38,81664
 517,88; 2549,031;  189,016; 6325,749;38,45718
 518,46; 2460,508;  161,782; 6208,664;38,01506
 519,05; 2448,376;  172,392; 6162,716;37,99433
 519,63; 2420,231;  174,857; 6103,985;37,87022
 520,22; 2397,231;  186,999; 6063,011;37,61449
 520,80; 2327,099;  174,537; 5974,169;37,11549
 521,38; 2364,773;  200,314; 5943,214;37,68929
 521,97; 2287,274;  163,301; 5948,913;36,71130
 522,55; 2279,170;  192,916; 5899,087;36,56136
 523,13; 2240,007;  164,527; 5895,475;36,21529
 523,72; 2232,656;  176,783; 5902,339;35,90695
 524,30; 2257,656;  187,446; 6033,060;35,41476
 524,89; 2240,296;  173,761; 6062,840;35,09096
 525,47; 2287,650;  188,366; 6140,356;35,27028
 526,05; 2234,487;  156,288; 6214,583;34,30335
 526,64; 2291,868;  185,593; 6331,409;34,27169
 527,22; 2325,527;  173,521; 6435,363;34,36698
 527,80; 2381,680;  212,670; 6570,642;34,11482
 528,39; 2382,228;  166,051; 6667,042;34,08984
 528,97; 2389,542;  178,591; 6853,054;33,12552
 529,55; 2441,717;  199,835; 7020,103;32,87088
 530,14; 2493,641;  200,586; 7212,337;32,70302
 530,72; 2501,348;  172,745; 7298,694;32,67780
 531,30; 2503,201;  168,277; 7399,341;32,29018
 531,89; 2533,413;  185,662; 7495,713;32,11675
 532,47; 2566,105;  210,275; 7550,258;32,09586
 533,05; 2542,797;  197,824; 7607,309;31,64826
 533,63; 2564,201;  213,042; 7692,081;31,43664
 534,22; 2530,998;  183,581; 7735,523;31,08362
 534,80; 2578,444;  209,034; 7776,864;31,30897
 535,38; 2654,250;  271,738; 7846,710;31,45242
 535,97; 2508,699;  206,659; 7879,065;30,00415
 536,55; 2577,936;  240,649; 7922,144;30,42751
 537,13; 2548,321;  257,586; 7916,035;29,91121
 537,71; 2589,145;  305,971; 7930,261;29,94605
 538,30; 2559,007;  342,193; 8009,190;28,91372
 538,88; 2594,684;  369,412; 8121,348;28,70602
 539,46; 2707,801;  426,881; 8317,961;28,90504
 540,05; 2726,395;  452,799; 8419,354;28,53926
 540,63; 2771,152;  504,337; 8682,437;27,71811
 541,21; 2802,176;  544,871; 8800,746;27,34181
 541,79; 2858,312;  586,409; 8912,041;27,28804
 542,38; 2920,604;  611,262; 9088,735;27,24092
 542,96; 2927,142;  610,018; 9235,033;26,86516
 543,54; 2976,010;  634,103; 9425,864;26,63752
 544,12; 2985,090;  591,023; 9550,281;26,72171
 544,70; 2985,792;  579,787; 9584,185;26,72033
 545,29; 3030,419;  600,723; 9717,112;26,65196
 545,87; 3016,004;  559,948; 9808,195;26,55699
 546,45; 2961,982;  513,647; 9799,178;26,36721
 547,03; 2949,348;  478,489; 9875,906;26,29296
 547,62; 2977,690;  445,178;10013,911;26,46654
 548,20; 3000,899;  434,327;10169,689;26,36340
 548,78; 3006,299;  390,234;10269,133;26,48134
 549,36; 3032,195;  358,159;10444,419;26,51167
 549,94; 3028,349;  312,406;10634,534;26,31184
 550,53; 3081,992;  320,161;10831,701;26,27427
 551,11; 3068,807;  289,308;10993,979;25,96529
 551,69; 3148,198;  284,390;11224,446;26,17727
 552,27; 3127,026;  256,396;11579,805;25,35129
 552,85; 3211,001;  265,770;11906,569;25,30094
 553,44; 3294,075;  250,390;12238,837;25,38848
 554,02; 3373,816;  268,849;12547,017;25,28852
 554,60; 3385,512;  209,538;12851,477;25,12252
 555,18; 3496,253;  240,236;13202,791;25,11864
 555,76; 3518,672;  224,772;13524,216;24,76720
 556,34; 3618,961;  221,916;13983,264;24,68541
 556,93; 3673,269;  216,158;14324,777;24,50354
 557,51; 3728,170;  207,531;14638,994;24,39558
 558,09; 3836,933;  219,620;14998,720;24,47587
 558,67; 3895,444;  224,373;15294,009;24,36072
 559,25; 3934,733;  230,991;15618,759;24,06939
 559,83; 4009,792;  209,369;15858,724;24,28486
 560,41; 4048,629;  206,688;16227,961;23,98025
 561,00; 4095,232;  220,603;16632,483;23,60868
 561,58; 4104,152;  212,304;16808,744;23,44990
 562,16; 4123,681;  198,000;17096,652;23,23073
 562,74; 4207,998;  184,157;17464,767;23,28530
 563,32; 4302,217;  178,600;17929,237;23,23081
 563,90; 4389,838;  204,757;18317,284;23,10600
 564,48; 4423,758;  216,843;18674,966;22,79167
 565,06; 4546,364;  203,066;19318,017;22,72200
 565,65; 4677,654;  207,746;19974,149;22,61366
 566,23; 4805,490;  246,988;20618,232;22,37714
 566,81; 4918,620;  205,760;21366,734;22,27147
 567,39; 5045,866;  202,136;22241,662;21,97747
 567,97; 5185,927;  214,682;22799,929;22,01103
 568,55; 5366,450;  230,292;23663,033;21,91873
 569,13; 5459,007;  203,218;24286,578;21,82332
 569,71; 5590,721;  205,539;25217,088;21,53078
 570,29; 5851,992;  237,928;26141,861;21,67263
 570,87; 5922,010;  235,002;26799,188;21,40856
 571,45; 6031,832;  223,373;27338,343;21,42159
 572,03; 6022,681;  188,750;27757,081;21,16171
 572,61; 6134,404;  193,062;28431,502;21,03991
 573,20; 6318,860;  227,146;29223,429;21,00860
 573,78; 6417,687;  212,446;29730,513;21,02184
 574,36; 6432,269;  217,602;30180,703;20,74107
 574,94; 6533,343;  270,902;30540,039;20,68920
 575,52; 6520,552;  232,507;30775,368;20,58761
 576,10; 6634,811;  282,050;31426,377;20,39781
 576,68; 6729,500;  264,827;31935,562;20,41213
 577,26; 6849,638;  284,118;32591,692;20,32192
 577,84; 6886,235;  279,447;32998,208;20,19266
 578,42; 6978,334;  326,284;33286,154;20,18227
 579,00; 6894,620;  280,676;33355,019;19,99720
 579,58; 6903,543;  318,748;33645,109;19,75852
 580,16; 6876,121;  300,128;33576,362;19,76183
 580,74; 6926,174;  303,435;33816,220;19,76183
 581,32; 6830,823;  298,747;33898,785;19,44068
 581,90; 6859,075;  317,129;33832,369;19,51932
 582,48; 6842,592;  320,590;34061,484;19,32967
 583,06; 6804,454;  314,901;34178,422;19,16384
 583,64; 6835,324;  318,287;34207,103;19,23064
 584,22; 6780,183;  324,659;33989,857;19,17566
 584,80; 6731,158;  336,130;33728,577;19,15112
 585,38; 6644,032;  336,763;33398,400;19,07730
 585,96; 6581,638;  318,136;33540,919;18,85303
 586,54; 6602,503;  337,584;33549,195;18,86364
 587,12; 6567,749;  295,664;33623,671;18,81926
 587,70; 6590,921;  326,751;33915,700;18,64950
 588,28; 6548,866;  310,588;33990,030;18,52251
 588,86; 6566,746;  309,124;34064,532;18,53813
 589,44; 6497,875;  290,421;34138,220;18,33931
 590,02; 6523,654;  295,962;34368,719;18,27763
 590,59; 6496,226;  267,738;34487,740;18,20131
 591,17; 6498,774;  266,411;34747,061;18,07496
 591,75; 6483,857;  267,340;34803,563;17,99999
 592,33; 6505,598;  286,112;35112,345;17,85862
 592,91; 6486,725;  229,721;35426,881;17,77701
 593,49; 6485,094;  245,101;35671,600;17,61391
 594,07; 6502,432;  259,562;35832,838;17,54933
 594,65; 6515,737;  261,352;35821,340;17,58826
 595,23; 6517,743;  246,578;36210,868;17,43720
 595,81; 6538,321;  243,729;36274,311;17,47014
 596,39; 6531,432;  248,883;36486,386;17,33715
 596,97; 6515,783;  243,029;36605,638;17,25056
 597,55; 6476,085;  235,273;36543,706;17,18833
 598,12; 6436,672;  225,713;36555,274;17,09616
 598,70; 6420,029;  216,258;36759,588;16,97648
 599,28; 6430,134;  244,565;36890,184;16,87942
 599,86; 6420,783;  238,027;36873,218;16,87655
 600,44; 6342,399;  204,178;37010,993;16,67686
 601,02; 6437,669;  242,858;37089,574;16,81238
 601,60; 6368,057;  224,878;37007,479;16,70132
 602,18; 6361,946;  213,406;36958,737;16,73285
 602,75; 6346,500;  211,576;37145,530;16,61052
 603,33; 6343,691;  227,411;37128,658;16,57472
 603,91; 6295,066;  209,094;37075,905;16,50800
 604,49; 6306,235;  238,180;37155,830;16,43673
 605,07; 6269,589;  247,802;37247,076;16,27542
 605,65; 6241,669;  252,716;37232,933;16,19502
 606,23; 6296,561;  339,047;37403,294;16,07348
 606,80; 6281,020;  378,730;37512,518;15,89466
 607,38; 6290,799;  435,941;37444,992;15,82007
 607,96; 6299,974;  486,731;37561,063;15,67997
 608,54; 6261,497;  544,639;37598,074;15,42869
 609,12; 6305,586;  574,807;37652,883;15,45598
 609,70; 6276,632;  603,412;37699,629;15,29326
 610,27; 6239,654;  613,886;37760,335;15,14483
 610,85; 6283,309;  621,182;37945,412;15,17011
 611,43; 6212,789;  642,335;37815,543;14,98513
 612,01; 6106,482;  590,418;37537,258;14,92973
 612,59; 6099,085;  573,566;37568,892;14,93572
 613,16; 6058,586;  538,274;37494,408;14,93747
 613,74; 6016,257;  509,257;37388,638;14,93246
 614,32; 5962,955;  459,177;37376,355;14,90845
 614,90; 5907,894;  404,492;37241,860;14,93972
 615,48; 5787,478;  353,657;36952,366;14,84703
 616,05; 5799,691;  322,583;36924,578;14,96396
 616,63; 5734,364;  337,740;36705,328;14,83910
 617,21; 5721,337;  317,732;36719,598;14,84431
 617,79; 5635,315;  301,652;36551,488;14,71362
 618,36; 5609,725;  311,494;36451,140;14,66044
 618,94; 5507,251;  262,272;36145,819;14,61667
 619,52; 5477,174;  278,970;35926,114;14,58239
 620,10; 5460,017;  268,499;35857,414;14,58746
 620,67; 5401,623;  276,048;35802,232;14,42760
 621,25; 5397,432;  291,802;35702,434;14,41836
 621,83; 5358,260;  276,887;35486,864;14,43163
 622,41; 5325,245;  310,888;35527,570;14,23858
 622,98; 5276,472;  295,894;35265,104;14,24275
 623,56; 5240,106;  290,742;35286,075;14,14293
 624,14; 5196,903;  279,414;35205,024;14,07989
 624,72; 5156,608;  269,810;35071,300;14,04192
 625,29; 5097,364;  246,434;35144,209;13,90040
 625,87; 5137,103;  293,805;35131,731;13,90237
 626,45; 5035,906;  242,897;34865,656;13,84352
 627,02; 4987,300;  258,574;34892,390;13,65349
 627,60; 4933,968;  251,640;34812,462;13,54808
 628,18; 4920,201;  234,576;34819,037;13,54835
 628,76; 4944,294;  235,893;34911,423;13,57845
 629,33; 4901,229;  258,197;34923,927;13,39372
 629,91; 4879,171;  241,653;34861,414;13,39558
 630,49; 4909,491;  257,430;35011,585;13,38563
 631,06; 4886,278;  251,046;35169,940;13,27428
 631,64; 4863,958;  256,281;35102,744;13,22280
 632,22; 4777,294;  215,670;35023,676;13,10510
 632,79; 4849,475;  236,439;35310,657;13,15221
 633,37; 4815,691;  219,187;35335,373;13,08942
 633,95; 4812,149;  224,590;35409,881;13,03829
 634,52; 4802,331;  210,118;35526,999;13,00288
 635,10; 4804,928;  208,116;35525,147;13,01585
 635,68; 4828,149;  216,593;35702,106;12,99560
 636,25; 4785,238;  208,060;35657,472;12,91186
 636,83; 4809,832;  194,432;35948,269;12,90883
 637,41; 4801,718;  209,825;35891,686;12,86898
 637,98; 4798,146;  235,749;36229,688;12,67546
 638,56; 4756,829;  220,908;36289,400;12,57585
 639,13; 4793,312;  202,510;36304,779;12,71610
 639,71; 4816,324;  239,892;36412,703;12,65158
 640,29; 4668,716;  182,815;36232,811;12,44355
 640,86; 4710,077;  202,969;36414,071;12,44676
 641,44; 4735,208;  203,661;36446,331;12,50335
 642,02; 4716,800;  233,660;36350,746;12,41279
 642,59; 4686,546;  195,429;36597,698;12,33746
 643,17; 4619,753;  204,967;36478,266;12,17090
 643,74; 4626,345;  201,198;36555,988;12,17212
 644,32; 4626,630;  228,813;36455,172;12,13983
 644,89; 4599,299;  211,505;36439,201;12,11171
 645,47; 4610,353;  220,351;36540,615;12,08692
 646,05; 4600,945;  225,120;36471,876;12,07232
 646,62; 4557,768;  219,735;36389,597;11,99350
 647,20; 4563,899;  221,734;36537,396;11,95673
 647,77; 4480,337;  194,196;36456,810;11,81972
 648,35; 4457,391;  188,041;36334,455;11,81127
 648,92; 4450,983;  226,118;36323,408;11,70410
 649,50; 4385,806;  182,656;36179,668;11,67638
 650,08; 4406,629;  194,348;36169,390;11,70890
 650,65; 4409,298;  196,656;36434,343;11,62503
 651,23; 4431,582;  176,809;37475,142;11,40741
 651,80; 4555,790;  177,963;38145,556;11,53043
 652,38; 4556,690;  195,116;38409,124;11,41355
 652,95; 4611,359;  174,577;38783,076;11,49172
 653,53; 4624,182;  200,346;38932,645;11,42157
 654,10; 4670,081;  225,807;39085,059;11,43685
 654,68; 4612,981;  185,499;38997,857;11,40740
 655,25; 4570,497;  180,653;39155,964;11,26314
 655,83; 4518,166;  191,653;39123,301;11,11310
 656,40; 4596,604;  207,268;39125,792;11,27827
 656,98; 4499,812;  178,344;39041,976;11,11957
 657,55; 4460,865;  200,113;38905,544;11,00815
 658,13; 4437,996;  183,036;38492,266;11,10688
 658,70; 4421,280;  214,036;38173,064;11,08365
 659,28; 4265,180;  195,343;37285,325;10,97288
 659,85; 4190,003;  202,189;36767,200;10,90609
 660,43; 4187,442;  216,496;36795,922;10,85568
 661,00; 4172,034;  192,034;37030,413;10,80395
 661,58; 4193,703;  193,188;37247,674;10,79630
 662,15; 4163,833;  173,264;37525,396;10,68364
 662,73; 4227,503;  228,956;37772,656;10,65038
 663,30; 4214,633;  196,879;37982,147;10,63312
 663,88; 4220,456;  201,725;38034,946;10,62223
 664,45; 4224,971;  177,032;38376,514;10,59684
 665,03; 4282,794;  190,186;38730,467;10,61904
 665,60; 4350,156;  247,032;39080,342;10,56599
 666,17; 4246,825;  190,416;39173,141;10,40566
 666,75; 4287,571;  182,569;39595,478;10,41537
 667,32; 4342,163;  218,954;39835,200;10,40787
 667,90; 4361,832;  190,800;40079,691;10,45663
 668,47; 4377,193;  214,030;40393,490;10,36142
 669,05; 4398,478;  190,568;40677,597;10,39323
 669,62; 4374,224;  165,876;40703,472;10,38135
 670,19; 4357,662;  186,183;40780,271;10,27608
 670,77; 4396,716;  194,413;40914,301;10,32003
 671,34; 4350,385;  189,105;40904,253;10,22047
 671,92; 4380,208;  174,182;41211,052;10,24938
 672,49; 4378,416;  201,797;41289,235;10,16520
 673,06; 4360,931;  155,720;41258,496;10,23097
 673,64; 4340,600;  177,335;41221,448;10,14339
 674,21; 4329,192;  163,334;41252,786;10,13851
 674,79; 4357,784;  197,565;41443,123;10,08647
 675,36; 4375,223;  200,949;41590,152;10,08542
 675,93; 4290,892;  171,257;41475,567; 9,97386
 676,51; 4305,869;  180,487;41691,365; 9,93807
 677,08; 4338,768;  187,641;41722,087; 9,99442
 677,65; 4315,361;  190,256;41813,578; 9,91056
 678,23; 4336,030;  190,717;42092,608; 9,89290
 678,80; 4288,699;  177,563;42089,638; 9,80895
 679,38; 4291,214;  172,716;42195,206; 9,80070
 679,95; 4354,191;  186,408;42522,697; 9,84447
 680,52; 4367,091;  174,869;42794,188; 9,83643
 681,10; 4397,606;  187,946;43153,602; 9,79773
 681,67; 4395,583;  194,869;43574,862; 9,68353
 682,24; 4399,713;  170,791;43488,969; 9,76246
 682,82; 4431,382;  178,791;44118,998; 9,67813
 683,39; 4511,821;  220,791;44479,951; 9,69524
 683,96; 4496,105;  175,867;44567,673; 9,73206
 684,54; 4508,082;  176,790;44929,625; 9,67825
 685,11; 4562,828;  211,867;45244,655; 9,66176
 685,68; 4574,651;  191,097;45715,146; 9,62909
 686,25; 4592,705;  175,943;45676,637; 9,70702
 686,83; 4618,681;  174,481;45902,974; 9,71867
 687,40; 4617,274;  174,173;46243,850; 9,64431
 687,97; 4673,712;  210,865;46634,187; 9,61337
 688,55; 4655,458;  172,096;46695,909; 9,63670
 689,12; 4638,050;  158,018;46834,247; 9,59810
 689,69; 4635,873;  167,941;46987,738; 9,54283
 690,26; 4696,696;  188,095;47065,767; 9,61780
 690,84; 4663,519;  176,248;47164,335; 9,54981
 691,41; 4715,803;  191,325;47289,980; 9,60639
 691,98; 4764,549;  186,324;47652,471; 9,64524
 692,56; 4697,680;  172,016;47699,501; 9,52220
 693,13; 4749,503;  231,478;47811,146; 9,49571
 693,70; 4749,864;  198,477;47910,483; 9,53929
 694,27; 4749,534;  175,861;48078,666; 9,54782
 694,84; 4762,510;  172,553;48199,850; 9,55698
 695,42; 4840,795;  209,938;48158,418; 9,65799
 695,99; 4766,849;  178,399;48434,217; 9,50859
 696,56; 4770,133;  166,937;48235,939; 9,57623
 697,13; 4828,341;  188,937;48645,660; 9,57432
 697,71; 4817,163;  156,936;48695,382; 9,60110
 698,28; 4807,371;  177,859;49043,181; 9,47402
 698,85; 4845,348;  149,936;49061,749; 9,59975
 699,42; 4880,632;  150,166;49175,317; 9,64906
 699,99; 4912,994;  186,781;49168,424; 9,64895
 700,57; 4897,586;  189,550;49295,376; 9,58753
 701,14; 4881,255;  167,627;49540,867; 9,54693
 701,71; 4943,770;  191,088;49600,743; 9,61893
 702,28; 4915,055;  187,703;49671,388; 9,55335
 702,85; 4926,032;  182,780;49705,341; 9,57796
 703,43; 4971,547;  200,856;50042,139; 9,57176
 704,00; 5013,293;  205,394;50212,708; 9,61439
 704,57; 5016,962;  198,394;50247,276; 9,62772
 705,14; 5069,939;  221,009;50445,074; 9,65459
 705,71; 5073,839;  223,855;50507,027; 9,64534
 706,28; 5064,585;  199,239;50257,057; 9,71945
 706,86; 5110,254;  223,854;50675,701; 9,68527
 707,43; 5115,307;  231,546;50503,193; 9,71474
 708,00; 5098,515;  219,777;50573,299; 9,68897
 708,57; 5060,338;  201,623;50403,175; 9,67842
 709,14; 5135,007;  226,238;50611,974; 9,74238
 709,71; 5124,368;  202,391;50668,619; 9,75301
 710,28; 5187,807;  190,852;50869,263; 9,86012
 710,86; 5172,937;  194,467;50971,908; 9,80449
 711,43; 5251,991;  211,929;50930,246; 9,93736
 712,00; 5185,429;  203,390;51004,044; 9,80704
 712,57; 5246,098;  213,082;51145,920; 9,88167
 713,14; 5275,537;  192,389;51241,027; 9,95746
 713,71; 5264,590;  199,773;51219,825; 9,92711
 714,28; 5255,721;  203,696;51284,240; 9,89031
 714,85; 5215,390;  179,234;51042,962; 9,90127
 715,42; 5306,290;  197,772;51212,914;10,01373
 716,00; 5346,421;  231,464;51301,790;10,01552
 716,57; 5341,859;  194,156;51492,127;10,03490
 717,14; 5343,220;  174,233;51368,080;10,09689
 717,71; 5344,428;  162,925;51490,879;10,09489
 718,28; 5412,328;  209,540;51434,370;10,15677
 718,85; 5379,920;  178,540;51513,476;10,13224
 719,42; 5410,820;  191,155;51748,583;10,12398
 719,99; 5366,951;  184,154;51432,997;10,11300
 720,56; 5454,081;  194,385;51626,411;10,22650
 721,13; 5444,289;  186,231;51896,825;10,16824
 721,70; 5437,958;  175,154;51737,624;10,20666
 722,27; 5507,396;  211,538;51837,961;10,25804
 722,84; 5551,373;  227,999;51915,914;10,29907
 723,41; 5492,504;  168,691;51779,251;10,31536
 723,98; 5531,173;  189,845;52034,127;10,30264
 724,55; 5559,842;  210,383;52143,541;10,30066
 725,12; 5543,588;  144,921;52052,878;10,40046
 725,69; 5644,334;  175,844;52301,446;10,49099
 726,27; 5644,618;  181,459;52352,553;10,47162
 726,84; 5708,364;  189,227;52631,044;10,52431
 727,41; 5736,033;  195,150;52610,612;10,57109
 727,98; 5797,933;  193,842;52946,641;10,62331
 728,55; 5823,448;  217,919;52853,517;10,64969
 729,12; 5797,579;  168,611;53012,931;10,65198
 729,69; 5855,787;  194,610;53127,346;10,69504
 730,26; 5869,840;  205,764;53271,221;10,67375
 730,82; 5893,740;  186,764;53139,866;10,77742
 731,39; 5935,563;  189,840;53253,742;10,82793
 731,96; 5982,078;  176,071;53726,771;10,84208
 732,53; 5979,901;  199,686;53794,724;10,78498
 733,10; 6072,109;  198,455;53893,754;10,93886
 733,67; 6081,316;  195,993;54022,860;10,93380
 734,24; 6085,524;  187,608;53704,428;11,02068
 734,81; 6097,578;  213,608;53786,227;10,98317
 735,38; 6063,247;  198,069;53504,026;11,00286
 735,95; 6115,224;  192,607;53378,671;11,13566
 736,52; 6173,585;  207,683;53641,931;11,16494
 737,09; 6183,100;  205,760;53200,114;11,27920
 737,66; 6213,308;  236,683;53366,682;11,24906
 738,23; 6204,977;  196,298;53539,558;11,26418
 738,80; 6348,954;  232,298;53792,126;11,42023
 739,37; 6339,007;  221,682;53891,540;11,39807
 739,94; 6351,523;  194,220;53998,185;11,44396
 740,51; 6504,884;  276,527;54075,523;11,57709
 741,07; 6401,476;  188,835;53936,014;11,55901
 741,64; 6500,607;  223,450;54271,043;11,61413
 742,21; 6458,353;  192,296;54194,304;11,60338
 742,78; 6436,791;  169,834;54114,949;11,61728
 743,35; 6490,306;  197,218;54262,440;11,63981
 743,92; 6586,437;  223,218;54418,623;11,74125
 744,49; 6598,337;  196,756;54284,806;11,83548
 745,06; 6563,698;  187,986;54336,836;11,77442
 745,63; 6604,752;  169,524;54346,712;11,87811
 746,19; 6627,960;  183,293;54321,818;11,90403
 746,76; 6593,013;  199,139;54303,079;11,81776
 747,33; 6689,990;  189,754;54318,877;12,00876
 747,90; 6727,275;  213,292;54484,907;12,00256
 748,47; 6740,636;  211,292;54387,013;12,05216
 749,04; 6792,844;  202,369;54411,043;12,15760
 749,61; 6821,513;  225,522;54302,765;12,19735
 750,17; 6819,643;  201,445;54403,717;12,21019
 750,74; 6857,005;  207,214;54210,209;12,31374
 751,31; 6828,135;  183,598;54225,161;12,29524
 751,88; 6836,189;  172,521;54072,422;12,36304
 752,45; 6908,935;  197,597;54272,143;12,41127
 753,02; 6913,758;  203,905;54075,788;12,45520
 753,58; 6931,119;  179,289;54019,895;12,54041
 754,15; 6920,712;  189,212;54153,617;12,47396
 754,72; 6935,304;  184,673;53897,646;12,56797
 755,29; 6950,281;  182,827;53744,214;12,63495
 755,86; 6974,873;  206,980;53887,552;12,60771
 756,42; 7013,465;  211,057;53757,812;12,70368
 756,99; 7035,749;  183,364;53740,995;12,79441
 757,56; 7014,111;  188,594;53599,486;12,77926
 758,13; 7061,857;  154,902;53643,901;12,91285
 758,70; 7082,141;  184,055;53619,546;12,90918
 759,26; 7152,810;  186,055;53680,575;13,02331
 759,83; 7176,326;  192,824;53849,374;13,01519
 760,40; 7195,072;  172,439;53729,019;13,11255
 760,97; 7239,433;  181,054;53652,433;13,20029
 761,53; 7210,718;  153,054;53224,155;13,29851
 762,10; 7233,694;  167,746;53412,261;13,27075
 762,67; 7278,363;  181,515;53308,291;13,35833
 763,24; 7235,725;  142,668;52784,551;13,47417
 763,80; 7277,009;  173,283;52993,273;13,44893
 764,37; 7280,063;  174,898;52890,303;13,47835
 764,94; 7273,194;  170,667;52409,332;13,59630
 765,50; 7308,940;  154,898;52455,669;13,67865
 766,07; 7385,224;  202,897;52535,853;13,72429
 766,64; 7318,124;  164,666;52255,806;13,73258
 767,21; 7345,639;  170,897;52117,681;13,81172
 767,77; 7387,001;  192,127;51984,249;13,89183
 768,34; 7386,670;  185,896;52024,894;13,89065
 768,91; 7413,339;  184,819;51831,385;13,99613
 769,47; 7457,316;  183,588;51739,646;14,10839
 770,04; 7464,369;  198,203;51652,137;14,12169
 770,61; 7458,346;  176,433;51467,012;14,19737
 771,18; 7446,400;  165,740;51421,427;14,20459
 771,74; 7548,300;  179,894;51554,995;14,34237
 772,31; 7550,430;  178,817;51285,486;14,42398
 772,88; 7470,330;  162,201;50999,746;14,37546
 773,44; 7541,307;  174,970;50919,930;14,51639
 774,01; 7566,207;  184,354;50986,190;14,53068
 774,58; 7552,645;  165,431;50584,450;14,65164
 775,14; 7592,853;  165,815;50935,787;14,62880
 775,71; 7607,753;  162,353;50687,048;14,73616
 776,27; 7677,345;  209,199;50623,616;14,81351
 776,84; 7731,014;  235,814;50558,107;14,89439
 777,41; 7670,375;  192,737;50449,598;14,87884
 777,97; 7655,198;  175,737;50148,397;14,96711
 778,54; 7722,021;  194,121;50152,734;15,06827
 779,11; 7735,844;  202,121;50107,456;15,09603
 779,67; 7767,667;  166,582;50077,870;15,22919
 780,24; 7760,336;  187,197;49932,053;15,22396
 780,80; 7815,774;  211,966;49922,545;15,29616
 781,37; 7814,982;  191,735;49936,959;15,32458
 781,94; 7813,497;  193,427;49652,142;15,40693
 782,50; 7825,397;  199,657;49670,710;15,41455
 783,07; 7875,066;  220,657;49662,124;15,48176
 783,63; 7849,812;  178,426;49441,923;15,57215
 784,20; 7885,635;  211,810;49375,876;15,60861
 784,77; 7850,458;  190,810;49139,598;15,64829
 785,33; 7827,127;  168,886;48971,396;15,69231
 785,90; 7918,873;  193,809;48959,657;15,84114
 786,46; 7923,850;  202,424;48732,302;15,91066
 787,03; 7875,365;  179,654;48603,793;15,89230
 787,59; 7882,034;  192,808;48512,438;15,91326
 788,16; 7947,627;  211,961;48495,083;16,02147
 788,73; 7994,680;  204,500;48330,420;16,18708
 789,29; 7914,042;  184,884;47928,450;16,18890
 789,86; 7994,403;  201,268;47917,556;16,33223
 790,42; 8011,995;  204,499;47807,739;16,40119
 790,99; 7996,280;  209,960;47333,538;16,52319
 791,55; 7985,872;  188,113;47363,029;16,52946
 792,12; 8022,772;  203,421;47333,059;16,59115
 792,68; 8033,287;  189,651;47039,165;16,74219
 793,25; 8020,802;  203,497;46936,887;16,72745
 793,81; 8040,856;  236,958;46509,609;16,86503
 794,38; 7901,063;  164,496;46262,254;16,78296
 794,94; 7973,425;  187,958;46176,130;16,92928
 795,51; 7937,479;  212,419;45888,467;16,91271
 796,07; 7981,302;  197,572;45609,343;17,14033
 796,64; 7994,663;  212,110;45813,911;17,06633
 797,20; 7960,178;  201,956;45285,094;17,20870
 797,77; 7926,924;  182,725;45032,124;17,26712
 798,33; 7948,132;  203,648;44824,384;17,35624
 798,90; 7921,416;  229,109;44683,106;17,30397
 799,46; 7899,547;  193,493;44359,520;17,44792
 800,03; 7902,985;  209,262;44232,319;17,47658
 800,59; 7894,577;  215,493;43968,425;17,55102
 801,15; 7913,093;  218,339;43802,378;17,65498
 801,72; 7848,454;  207,569;43444,638;17,67207
 802,28; 7875,892;  236,799;43195,053;17,78260
 802,85; 7849,715;  201,338;43084,313;17,83546
 803,41; 7831,307;  196,568;42831,573;17,90721
 803,98; 7844,130;  203,260;42400,218;18,10763
 804,54; 7787,492;  200,721;42207,402;18,06087
 805,11; 7773,930;  212,413;41947,816;18,11775
 805,67; 7842,676;  224,105;41867,230;18,29491
 806,23; 7783,884;  210,105;41537,106;18,32647
 806,80; 7834,245;  229,412;41438,981;18,45405
 807,36; 7841,914;  235,797;41322,165;18,51251
 807,93; 7866,122;  232,335;41031,425;18,71068
 808,49; 7806,406;  204,257;40732,070;18,75786
 809,05; 7820,998;  195,949;40583,638;18,87964
 809,62; 7834,821;  227,488;40551,206;18,86566
 810,18; 7859,798;  220,949;40393,005;19,01533
 810,74; 7772,313;  188,102;40200,188;18,95480
 811,31; 7793,983;  197,563;39963,372;19,10289
 811,87; 7797,421;  203,794;39769,478;19,19246
 812,44; 7868,013;  244,024;39784,277;19,28159
 813,00; 7717,451;  170,486;39537,922;19,17058
 813,56; 7801,274;  211,716;39511,567;19,31193
 814,13; 7784,020;  210,716;39485,289;19,28297
 814,69; 7781,305;  217,100;39222,164;19,39288
 815,25; 7761,897;  184,792;38821,886;19,61096
 815,82; 7790,028;  223,869;38740,224;19,64402
 816,38; 7776,389;  238,561;38592,253;19,65346
 816,94; 7693,212;  199,329;38345,206;19,64533
 817,51; 7691,496;  195,945;38141,851;19,75326
 818,07; 7645,012;  191,406;37898,880;19,76692
 818,63; 7652,450;  216,098;37713,833;19,83147
 819,20; 7656,119;  210,790;37591,401;19,91762
 819,76; 7626,019;  182,405;37175,738;20,12150
 820,32; 7630,919;  227,404;37176,306;20,03717
 820,89; 7646,126;  218,943;36972,874;20,20786
 821,45; 7604,334;  193,635;36705,673;20,29659
 822,01; 7567,695;  212,173;36457,472;20,29373
 822,57; 7578,903;  216,480;36314,578;20,39560
 823,14; 7565,649;  183,018;36003,069;20,61033
 823,70; 7558,472;  191,556;35843,407;20,66349
 824,26; 7572,372;  194,479;35633,667;20,81846
 824,82; 7565,733;  219,248;35486,158;20,83110
 825,39; 7516,171;  198,248;35265,188;20,86844
 825,95; 7525,533;  221,555;35348,063;20,79335
 826,51; 7512,356;  217,401;34890,631;21,03916
 827,08; 7521,179;  248,400;35052,738;20,89618
 827,64; 7474,002;  227,939;34877,075;20,91268
 828,20; 7478,363;  195,246;34455,797;21,25803
 828,76; 7494,878;  217,553;34479,211;21,24043
 829,32; 7509,163;  228,630;34362,702;21,32922
 829,89; 7468,293;  191,860;34270,040;21,35218
 830,45; 7455,963;  218,168;34148,531;21,33132
 831,01; 7521,555;  188,706;34034,483;21,66548
 831,57; 7483,455;  214,013;33873,051;21,59729
 832,14; 7467,431;  188,474;33829,235;21,63731
 832,70; 7478,485;  184,320;33568,957;21,84887
 833,26; 7487,462;  173,012;33541,294;21,92037
 833,82; 7456,900;  193,166;33430,785;21,85396
 834,38; 7461,108;  191,012;33459,661;21,85269
 834,95; 7480,700;  182,242;33288,767;22,04538
 835,51; 7464,215;  159,934;33178,258;22,12190
 836,07; 7464,807;  208,857;33126,749;22,04257
 836,63; 7552,323;  219,933;33182,471;22,24461
 837,19; 7556,992;  200,472;33054,885;22,39127
 837,75; 7450,199;  175,702;32831,684;22,27616
 838,32; 7537,714;  233,163;32805,021;22,42596
 838,88; 7507,076;  208,086;32879,974;22,34028
 839,44; 7544,591;  204,547;32835,311;22,49424
 840,00; 7529,491;  196,008;32711,649;22,55371
 840,56; 7492,775;  187,008;32406,370;22,67508
 841,12; 7547,137;  192,931;32423,169;22,81772
 841,68; 7492,191;  178,623;32247,353;22,80592
 842,25; 7550,398;  196,392;32285,921;22,91715
 842,81; 7540,375;  175,468;32000,643;23,14176
 843,37; 7518,044;  175,391;32049,980;23,03607
 843,93; 7548,867;  190,237;31899,163;23,20681
 844,49; 7616,459;  199,160;31924,962;23,37939
 845,05; 7517,513;  170,159;31752,222;23,26432
 845,61; 7581,413;  196,928;31819,329;23,35207
 846,17; 7574,159;  182,928;31693,051;23,45669
 846,73; 7581,828;  201,543;31660,157;23,46030
 847,29; 7558,958;  166,389;31376,571;23,68640
 847,86; 7536,474;  189,311;31471,293;23,48688
 848,42; 7552,604;  185,003;31231,323;23,73100
 848,98; 7576,427;  199,003;31167,122;23,82264
 849,54; 7571,327;  189,080;31192,151;23,81134
 850,10; 7555,535;  192,002;31075,950;23,84259
 850,66; 7524,358;  178,541;30952,133;23,87052
 851,22; 7512,796;  174,463;30881,240;23,89809
 851,78; 7530,542;  217,386;30775,423;23,93202
 852,34; 7488,442;  188,463;30672,991;23,94650
 852,90; 7514,572;  195,462;30472,098;24,17412
 853,46; 7473,472;  186,001;30447,820;24,08141
 854,02; 7481,988;  190,539;30376,080;24,15544
 854,58; 7451,272;  195,461;30142,340;24,22894
 855,14; 7484,480;  179,538;30039,293;24,46417
 855,70; 7437,149;  159,307;29848,553;24,51339
 856,26; 7472,279;  214,845;29829,275;24,50641
 856,82; 7495,948;  176,229;29632,305;24,84961
 857,38; 7500,002;  213,460;29555,565;24,83306
 857,94; 7493,287;  193,229;29523,748;24,88895
 858,50; 7484,494;  197,228;29334,701;25,00994
 859,06; 7456,548;  184,843;29214,038;25,04962
 859,62; 7467,371;  202,305;29092,376;25,14728
 860,18; 7481,886;  195,535;29018,405;25,27976
 860,74; 7419,940;  165,535;28836,666;25,30212
 861,30; 7390,686;  170,073;28620,926;25,37925
 861,86; 7498,278;  211,688;28730,417;25,55019
 862,42; 7378,101;  191,380;28475,831;25,40873
 862,98; 7517,462;  217,303;28471,707;25,83725
 863,54; 7390,901;  191,302;28284,813;25,62726
 864,10; 7415,108;  187,456;28354,689;25,65979
 864,66; 7329,008;  177,686;28122,949;25,59046
 865,22; 7395,677;  191,378;28028,287;25,88038
 865,78; 7338,269;  201,609;27833,932;25,82722
 866,34; 7339,708;  185,070;27786,423;25,92133
 866,90; 7319,684;  200,531;27757,683;25,83414
 867,45; 7288,815;  196,069;27478,097;25,99787
 868,01; 7282,253;  197,300;27422,434;26,02358
 868,57; 7237,846;  195,761;27147,156;26,12883
 869,13; 7222,976;  172,914;26985,186;26,29416
 869,69; 7261,799;  190,068;26880,523;26,49536
 870,25; 7244,468;  183,837;26807,937;26,51970
 870,81; 7260,676;  188,606;26822,582;26,55281
 871,37; 7220,114;  207,144;26708,766;26,46242
 871,93; 7236,476;  208,528;26547,949;26,68224
 872,49; 7252,298;  205,143;26366,825;26,93694
 873,04; 7148,506;  190,297;26172,470;26,78071
 873,60; 7140,175;  183,835;26067,115;26,87581
 874,16; 7161,613;  206,681;26004,837;26,95903
 874,72; 7178,767;  174,527;25912,913;27,21321
 875,28; 7176,152;  199,142;25949,298;27,09502
 875,84; 7220,767;  187,681;25809,067;27,45006
 876,40; 7180,690;  189,988;25718,298;27,38412
 876,95; 7183,844;  199,219;25729,913;27,35776
 877,51; 7221,537;  219,065;25743,067;27,43485
 878,07; 7244,998;  229,758;25741,144;27,49847
 878,63; 7234,690;  189,142;25670,144;27,65020
 879,19; 7262,306;  207,527;25682,221;27,69328
 879,75; 7264,537;  196,527;25680,837;27,73475
 880,30; 7294,383;  192,604;25741,298;27,79703
 880,86; 7402,152;  231,604;25824,452;28,01778
 881,42; 7338,460;  175,835;25867,606;27,87906
 881,98; 7430,613;  197,142;25967,683;28,06876
 882,54; 7497,383;  185,527;26060,683;28,25821
 883,09; 7518,767;  200,988;26136,375;28,21542
 883,65; 7549,844;  181,296;26253,067;28,26255
 884,21; 7659,075;  220,604;26443,298;28,36654
 884,77; 7668,229;  187,681;26443,529;28,49098
 885,32; 7776,998;  197,835;26623,144;28,68146
 885,88; 7873,690;  224,142;26729,221;28,86069
 886,44; 7936,383;  200,527;26781,452;29,10303
 887,00; 7983,998;  206,450;26781,683;29,26615
 887,56; 8038,383;  204,758;26950,452;29,28929
 888,11; 8094,690;  198,758;26875,529;29,59853
 888,67; 8148,690;  227,219;27192,837;29,37619
 889,23; 8137,537;  211,988;27134,529;29,43834
 889,79; 8121,075;  177,142;26959,913;29,66061
 890,34; 8157,537;  197,373;26890,144;29,82142
 890,90; 8308,075;  261,835;26991,067;30,10277
 891,46; 8202,613;  189,450;26957,837;29,93518
 892,01; 8224,152;  215,912;26927,452;29,98045
 892,57; 8260,767;  233,065;26787,529;30,23108
 893,13; 8247,690;  204,296;26687,837;30,37130
 893,69; 8221,152;  196,604;26742,837;30,22858
 894,24; 8200,229;  208,142;26558,144;30,33050
 894,80; 8172,613;  207,527;26352,606;30,46496
 895,36; 8176,152;  214,142;26334,375;30,48215
 895,91; 8132,306;  201,296;26085,298;30,64059
 896,47; 8113,075;  214,681;26019,760;30,60791
 897,03; 8122,998;  190,142;25808,144;30,96594
 897,58; 8084,844;  204,604;25710,452;30,89582
 898,14; 8073,229;  209,450;25562,606;31,01696
 898,70; 8038,460;  183,988;25405,683;31,14173
 899,25; 8061,921;  206,988;25479,067;31,08147
 899,81; 8034,075;  226,219;25196,990;31,26798
 900,37; 7983,690;  180,912;24989,837;31,45150
 900,92; 8005,767;  201,296;25014,760;31,45257
 901,48; 8008,229;  195,296;24905,837;31,61781
 902,03; 7964,075;  188,450;24770,452;31,63137
 902,59; 7973,767;  191,758;24677,375;31,78196
 903,15; 7941,306;  209,604;24532,913;31,78721
 903,70; 7902,460;  209,604;24308,452;31,92209
 904,26; 7869,690;  186,604;24260,452;31,91466
 904,82; 7876,229;  206,527;24168,837;32,00736
 905,37; 7859,537;  211,065;23999,913;32,15150
 905,93; 7873,613;  195,219;23948,837;32,32516
 906,48; 7881,767;  214,373;23861,760;32,42385
 907,04; 7855,537;  215,912;23793,913;32,40149
 907,60; 7790,690;  196,065;23571,452;32,48984
 908,15; 7762,998;  191,065;23422,144;32,59398
 908,71; 7827,075;  223,219;23390,298;32,82182
 909,26; 7740,075;  186,988;23283,067;32,70290
 909,82; 7694,229;  218,604;23088,760;32,68725
 910,37; 7754,306;  228,065;22987,837;33,06817
 910,93; 7660,383;  189,758;22826,529;33,00217
 911,48; 7591,690;  182,450;22725,760;32,86669
 912,04; 7612,075;  189,450;22628,913;33,07844
 912,60; 7621,537;  201,758;22711,606;32,96237
 913,15; 7568,152;  206,219;22436,529;33,11664
 913,71; 7544,460;  193,912;22300,760;33,25010
 914,26; 7490,075;  184,527;22214,067;33,16251
 914,82; 7485,844;  205,296;22088,683;33,26975
 915,37; 7511,690;  186,527;22002,221;33,57749
 915,93; 7528,075;  231,681;21942,683;33,60690
 916,48; 7476,998;  200,142;21836,221;33,63297
 917,04; 7437,383;  205,912;21692,298;33,65606
 917,59; 7461,998;  228,142;21680,298;33,72088
 918,15; 7353,306;  167,912;21509,221;33,66895
 918,70; 7354,921;  196,373;21388,067;33,77997
 919,26; 7300,306;  203,527;21271,452;33,68523
 919,81; 7258,306;  181,219;21161,606;33,73192
 920,37; 7281,229;  196,296;21054,760;33,96670
 920,92; 7266,460;  210,450;20993,067;33,95150
 921,48; 7198,306;  187,450;20769,375;34,06317
 922,03; 7214,613;  181,604;20754,837;34,18524
 922,59; 7147,229;  189,373;20638,221;34,02566
 923,14; 7092,460;  188,988;20487,221;34,01021
 923,69; 7136,537;  218,527;20450,298;34,19379
 924,25; 7122,383;  212,681;20397,452;34,23225
 924,80; 7025,921;  203,758;20279,144;33,98273
 925,36; 7030,767;  190,604;20144,837;34,27926
 925,91; 7000,383;  198,373;20036,683;34,28724
 926,47; 6972,998;  182,681;19981,760;34,29613
 927,02; 7035,537;  236,527;19892,990;34,58918
 927,57; 6945,844;  197,450;19766,606;34,48485
 928,13; 6944,152;  187,527;19635,298;34,74241
 928,68; 6940,383;  196,758;19562,683;34,82212
 929,24; 6869,537;  165,604;19332,760;34,97615
 929,79; 6885,460;  189,450;19374,144;34,90287
 930,34; 6848,152;  200,604;19219,067;34,95313
 930,90; 6861,690;  178,065;19171,683;35,18879
 931,45; 6876,767;  212,065;19131,990;35,22584
 932,01; 6820,537;  203,373;18981,375;35,23891
 932,56; 6830,921;  206,604;18829,529;35,57077
 933,11; 6818,767;  219,604;18883,837;35,35727
 933,67; 6742,306;  190,142;18662,760;35,46960
 934,22; 6733,844;  202,142;18576,606;35,54772
 934,77; 6728,613;  219,450;18450,144;35,70442
 935,33; 6666,767;  212,681;18364,990;35,55518
 935,88; 6616,229;  216,219;18292,913;35,40476
 936,43; 6653,306;  183,373;18178,529;35,95375
 936,99; 6656,383;  198,527;18078,760;36,11729
 937,54; 6567,613;  184,604;17930,760;35,96841
 938,09; 6591,383;  204,681;17895,760;36,10126
 938,65; 6610,613;  203,758;17768,683;36,47528
 939,20; 6571,690;  192,912;17668,529;36,50102
 939,75; 6529,306;  183,450;17611,683;36,41136
 940,31; 6510,229;  177,219;17523,298;36,50975
 940,86; 6554,383;  202,450;17448,529;36,83117
 941,41; 6569,075;  259,758;17371,452;36,87138
 941,96; 6498,537;  192,296;17291,067;36,88125
 942,52; 6438,844;  192,681;17197,221;36,73233
 943,07; 6399,229;  173,758;17022,529;36,94911
 943,62; 6416,075;  195,758;16975,452;37,07050
 944,18; 6401,613;  178,373;16942,221;37,12298
 944,73; 6408,152;  195,988;16850,221;37,30081
 945,28; 6348,921;  162,219;16678,837;37,45744
 945,83; 6332,844;  189,912;16652,529;37,31444
 946,39; 6351,383;  188,219;16654,529;37,42893
 946,94; 6343,383;  210,219;16546,990;37,54208
 947,49; 6241,844;  192,912;16355,683;37,42510
 948,04; 6335,921;  213,988;16382,837;37,86252
 948,59; 6270,383;  217,373;16321,990;37,58555
 949,15; 6257,613;  174,373;16220,144;37,91180
 949,70; 6195,690;  196,604;16162,529;37,57431
 950,25; 6223,613;  212,296;16074,683;37,89668
 950,80; 6195,460;  168,065;15965,683;38,15382
 951,36; 6126,998;  163,604;15866,298;37,97689
 951,91; 6189,921;  196,527;15937,990;38,07393
 952,46; 6071,460;  169,681;15675,298;38,06220
 953,01; 6144,537;  204,681;15721,606;38,27985
 953,56; 6052,998;  171,758;15519,529;38,31983
 954,11; 6054,460;  200,065;15497,837;38,26959
 954,67; 5995,075;  194,604;15418,298;38,10160
 955,22; 5957,229;  177,450;15336,837;38,12673
 955,77; 5972,306;  213,988;15372,606;37,98709
 956,32; 5957,690;  237,450;15165,990;38,31748
 956,87; 5909,998;  177,835;15115,606;38,37362
 957,42; 5883,613;  190,373;15019,760;38,39161
 957,98; 5844,767;  185,758;14944,683;38,34297
 958,53; 5872,613;  209,681;14911,452;38,51871
 959,08; 5773,844;  188,681;14761,298;38,32643
 959,63; 5785,460;  183,988;14712,913;38,55393
 960,18; 5799,613;  204,758;14648,529;38,73542
 960,73; 5763,152;  197,219;14620,452;38,59005
 961,28; 5720,690;  162,604;14516,221;38,72255
 961,83; 5701,921;  212,065;14468,529;38,50784
 962,39; 5667,075;  170,527;14320,760;38,84422
 962,94; 5667,229;  208,373;14261,606;38,84413
 963,49; 5602,690;  193,373;14064,606;38,99666
 964,04; 5618,306;  205,219;14101,837;38,95255
 964,59; 5574,306;  167,835;13950,452;39,22674
 965,14; 5628,152;  204,065;13914,298;39,56232
 965,69; 5525,537;  190,681;13818,375;39,14716
 966,24; 5490,537;  185,065;13732,760;39,16143
 966,79; 5519,613;  198,296;13657,221;39,53746
 967,34; 5432,537;  172,681;13516,913;39,41670
 967,89; 5438,460;  181,527;13465,452;39,57364
 968,44; 5425,537;  191,527;13384,221;39,67355
 968,99; 5402,460;  200,450;13406,990;39,38965
 969,55; 5386,844;  198,142;13242,144;39,77845
 970,10; 5357,844;  195,604;13172,606;39,77992
 970,65; 5354,152;  206,988;13092,221;39,94622
 971,20; 5307,306;  183,296;12931,913;40,19267
 971,75; 5234,229;  170,758;12815,683;40,04350
 972,30; 5217,613;  194,065;12817,144;39,79654
 972,85; 5206,229;  186,758;12681,067;40,17406
 973,40; 5174,460;  183,450;12642,760;40,05848
 973,95; 5165,383;  198,142;12550,683;40,21230
 974,50; 5163,460;  215,988;12480,683;40,33913
 975,05; 5108,229;  207,988;12393,606;40,21331
 975,60; 5098,767;  203,527;12316,298;40,41388
 976,15; 5018,152;  188,912;12217,913;40,14664
 976,70; 5003,844;  201,219;12141,375;40,22247
 977,25; 5044,537;  203,835;12047,760;40,87076
 977,80; 4947,998;  193,681;11947,837;40,44797
 978,35; 4914,844;  204,681;11800,837;40,61832
 978,89; 4888,690;  179,065;11732,990;40,76212
 979,44; 4856,690;  194,988;11782,452;40,23056
 979,99; 4820,998;  188,681;11583,683;40,65219
 980,54; 4830,537;  215,758;11494,606;40,91534
 981,09; 4824,998;  207,988;11429,221;41,14530
 981,64; 4728,690;  210,527;11337,837;40,60428
 982,19; 4739,690;  230,450;11234,606;40,97761
 982,74; 4706,152;  215,219;11126,067;41,16025
 983,29; 4658,306;  187,065;10984,606;41,40980
 983,84; 4598,844;  206,296;10970,990;40,80514
 984,39; 4677,152;  240,681;10901,606;41,61432
 984,94; 4533,229;  180,604;10728,298;41,26613
 985,49; 4551,460;  222,758;10684,375;41,37699
 986,03; 4559,921;  223,219;10548,067;42,00257
 986,58; 4503,383;  235,296;10449,837;41,78442
 987,13; 4457,767;  199,527;10346,452;41,96582
 987,68; 4400,613;  203,142;10294,452;41,59491
 988,23; 4357,767;  221,604;10229,760;41,32793
 988,78; 4298,075;  195,450;10102,452;41,41137
 989,33; 4256,383;  214,527;10005,990;41,27938
 989,88; 4286,460;  221,450; 9953,990;41,76720
 990,42; 4201,767;  202,758; 9835,221;41,51596
 990,97; 4160,306;  201,450; 9690,375;41,72080
 991,52; 4157,152;  223,527; 9655,144;41,70679
 992,07; 4159,998;  219,604; 9549,683;42,23324
 992,62; 4103,690;  213,527; 9398,760;42,35237
 993,17; 4046,921;  219,988; 9364,837;41,84796
 993,71; 4005,690;  217,604; 9279,606;41,80187
 994,26; 3954,229;  192,758; 9126,375;42,10468
 994,81; 3956,229;  221,604; 9108,913;42,02200
 995,36; 3872,075;  201,835; 8933,144;42,03539
 995,91; 3859,460;  216,373; 8857,529;42,15971
 996,45; 3800,844;  200,758; 8812,375;41,80500
 997,00; 3768,921;  184,065; 8698,221;42,10465
 997,55; 3779,537;  215,142; 8617,452;42,42160
 998,10; 3728,613;  234,758; 8514,067;42,19984
 998,65; 3678,152;  209,681; 8465,606;42,01190
 999,19; 3671,690;  215,912; 8388,452;42,28525
 999,74; 3636,844;  236,912; 8225,529;42,55971
1000,29; 3604,383;  217,758; 8214,606;42,34950
1000,84; 3539,229;  197,527; 8051,298;42,54901
1001,38; 3511,921;  205,912; 7977,452;42,53995
1001,93; 3503,152;  217,296; 7896,452;42,78928
1002,48; 3439,075;  195,527; 7815,913;42,56409
1003,03; 3445,460;  201,758; 7778,144;42,81331
1003,57; 3374,690;  220,142; 7662,913;42,38405
1004,12; 3387,921;  236,604; 7564,529;43,00422
1004,67; 3319,229;  201,681; 7504,298;42,69083
1005,22; 3234,075;  193,758; 7317,452;42,67894
1005,76; 3188,460;  192,219; 7201,529;42,74658
1006,31; 3196,998;  222,527; 7200,144;42,62875
1006,86; 3138,229;  203,219; 7095,529;42,58383
1007,40; 3112,998;  185,835; 6930,529;43,39950
1007,95; 3073,537;  196,450; 6899,683;42,92088
1008,50; 3037,075;  211,065; 6754,760;43,18676
1009,04; 2968,690;  208,142; 6714,683;42,42728
1009,59; 2938,383;  212,681; 6591,990;42,72722
1010,14; 2888,075;  204,219; 6472,837;42,81416
1010,68; 2863,844;  207,065; 6370,990;43,10206
1011,23; 2838,613;  190,373; 6266,452;43,58469
1011,78; 2785,921;  218,373; 6234,913;42,67482
1012,32; 2781,460;  207,988; 6075,529;43,85945
1012,87; 2770,921;  231,988; 6102,606;43,24814
1013,42; 2693,075;  196,450; 5988,760;43,10241
1013,96; 2712,152;  232,681; 5974,067;43,18593
1014,51; 2660,152;  169,604; 5922,837;43,28954
1015,06; 2664,306;  178,373; 5902,913;43,42589
1015,60; 2712,767;  248,296; 6007,606;42,79109
1016,15; 2701,152;  191,142; 5913,298;43,86476
1016,69; 2709,152;  203,681; 5929,298;43,75897
1017,24; 2693,075;  181,835; 5934,298;43,65504
1017,79; 2759,767;  222,450; 5968,913;44,15441
1018,33; 2736,998;  191,527; 5983,144;43,95096
1018,88; 2791,690;  212,296; 6030,760;44,33119
1019,42; 2757,921;  200,604; 5989,837;44,17368
1019,97; 2754,844;  205,065; 5993,913;44,04639
1020,51; 2817,152;  218,681; 6029,606;44,71700
1021,06; 2768,152;  183,912; 6008,837;44,36521
1021,61; 2749,306;  172,912; 5999,760;44,21592
1022,15; 2709,767;  163,527; 5969,683;43,85415
1022,70; 2716,075;  198,065; 5947,144;43,79849
1023,24; 2699,460;  191,912; 5912,837;43,83117
1023,79; 2693,229;  201,450; 5865,067;43,99624
1024,33; 2691,767;  192,988; 5793,529;44,61675
1024,88; 2649,229;  210,604; 5706,990;44,36779
1025,42; 2637,921;  198,450; 5620,837;44,98888
1025,97; 2566,690;  196,450; 5548,606;44,28571
1026,51; 2507,998;  162,450; 5439,375;44,44915
1027,06; 2525,075;  190,296; 5391,760;44,88696
1027,60; 2469,075;  208,758; 5274,067;44,62348
1028,15; 2473,306;  216,219; 5240,375;44,92469
1028,69; 2374,075;  170,142; 5132,144;44,41620
1029,24; 2402,767;  194,219; 5031,375;45,65799
1029,78; 2344,460;  179,527; 4947,837;45,40252
1030,33; 2284,152;  172,681; 4896,221;44,70103
1030,87; 2276,460;  190,373; 4847,606;44,79241
1031,42; 2247,229;  172,219; 4719,760;45,62927
1031,96; 2251,383;  205,912; 4741,606;45,09720
1032,51; 2176,690;  182,296; 4593,375;45,21330
1033,05; 2174,383;  196,142; 4588,144;45,04188
1033,60; 2107,998;  162,373; 4434,990;45,53708
1034,14; 2075,075;  179,373; 4380,760;45,12086
1034,69; 2070,383;  193,296; 4353,452;45,12058
1035,23; 2037,998;  191,065; 4271,606;45,26196
1035,77; 2036,690;  193,835; 4221,606;45,75374
1036,32; 1985,383;  169,296; 4142,606;45,70715
1036,86; 1993,613;  191,988; 4145,298;45,57258
1037,41; 1958,537;  205,373; 4039,375;45,72672
1037,95; 1907,075;  171,835; 3953,913;45,88060
1038,50; 1880,306;  183,142; 3937,375;45,20667
1039,04; 1893,921;  200,219; 3889,606;45,90741
1039,58; 1835,767;  164,835; 3805,683;45,89405
1040,13; 1839,152;  184,142; 3773,837;46,10447
1040,67; 1839,152;  209,912; 3734,452;46,22561
1041,21; 1812,921;  210,142; 3653,375;46,54866
1041,76; 1736,229;  179,681; 3625,837;45,16766
1042,30; 1745,152;  189,065; 3545,221;46,36515
1042,85; 1730,306;  188,065; 3515,375;46,35097
1043,39; 1661,844;  179,065; 3429,837;45,61314
1043,93; 1679,844;  210,219; 3417,760;45,81782
1044,48; 1645,152;  199,835; 3351,375;45,86066
1045,02; 1627,613;  190,604; 3281,683;46,48893
1045,56; 1632,613;  204,065; 3262,375;46,71038
1046,11; 1594,690;  194,527; 3205,913;46,49564
1046,65; 1581,537;  191,835; 3162,606;46,77916
1047,19; 1529,844;  186,450; 3102,837;46,06365
1047,74; 1514,075;  170,373; 3079,067;46,19605
1048,28; 1504,229;  189,604; 3036,913;46,17078
1048,82; 1503,460;  216,835; 3023,298;45,84507
1049,37; 1481,690;  202,065; 2977,221;46,11002
1049,91; 1459,075;  190,450; 2927,683;46,34699
1050,45; 1466,229;  207,373; 2887,221;46,97489
1050,99; 1423,998;  189,681; 2852,298;46,35729
1051,54; 1411,152;  188,758; 2789,990;46,99288
1052,08; 1428,229;  214,142; 2752,529;47,82906
1052,62; 1400,306;  205,912; 2716,298;47,57810
1053,16; 1350,537;  189,219; 2663,760;46,93063
1053,71; 1353,229;  201,450; 2650,990;47,02020
1054,25; 1333,844;  210,604; 2592,990;47,14770
1054,79; 1330,613;  211,527; 2542,067;48,01833
1055,33; 1278,844;  181,912; 2501,913;47,28154
1055,88; 1278,383;  210,912; 2482,913;46,98373
1056,42; 1281,152;  225,835; 2459,144;47,25352
1056,96; 1265,921;  213,912; 2418,990;47,70848
1057,50; 1242,152;  203,296; 2388,529;47,53982
1058,05; 1223,844;  203,373; 2325,221;48,09351
1058,59; 1227,921;  214,988; 2311,913;48,30562
1059,13; 1153,229;  184,450; 2250,375;46,89322
1059,67; 1177,998;  211,912; 2245,221;47,51301
1060,21; 1157,460;  205,988; 2198,837;47,74429
1060,76; 1166,690;  208,912; 2195,298;48,21714
1061,30; 1151,767;  224,065; 2166,221;47,76661
1061,84; 1132,537;  197,373; 2127,913;48,44050
1062,38; 1094,306;  187,681; 2067,683;48,22468
1062,92; 1124,613;  236,758; 2087,760;47,96623
1063,46; 1084,690;  221,604; 2040,375;47,45438
1064,01; 1063,075;  206,373; 2007,529;47,56401
1064,55; 1052,613;  211,219; 1985,452;47,42299
1065,09; 1017,998;  178,527; 1917,683;48,26889
1065,63; 1062,075;  237,681; 1973,913;47,48178
1066,17; 1042,152;  230,604; 1929,529;47,76833
1066,71; 1021,152;  228,988; 1899,760;47,41304
1067,25;  994,229;  205,450; 1863,144;47,58289
1067,80; 1003,460;  218,065; 1849,221;48,14955
1068,34;  996,844;  228,681; 1856,067;47,20227
1068,88;  966,767;  209,912; 1779,298;48,22622
1069,42;  980,229;  225,527; 1805,221;47,77519
1069,96;  942,537;  208,373; 1755,683;47,44774
1070,50;  951,690;  236,219; 1752,529;47,18503
1071,04;  917,383;  195,988; 1700,221;47,95762
1071,58;  925,537;  202,758; 1694,683;48,44606
1072,12;  910,921;  196,912; 1664,683;48,64584
1072,66;  892,537;  196,681; 1656,837;47,65627
1073,21;  905,152;  219,450; 1653,990;47,79942
1073,75;  875,537;  223,912; 1606,683;47,12457
1074,29;  875,460;  228,065; 1601,683;47,13061
1074,83;  880,537;  229,219; 1583,452;48,09493
1075,37;  875,229;  231,065; 1559,606;48,48655
1075,91;  866,921;  230,142; 1550,067;48,24356
1076,45;  847,383;  217,912; 1519,144;48,37499
1076,99;  833,767;  225,450; 1500,760;47,69958
1077,53;  827,921;  202,912; 1490,913;48,52552
1078,07;  820,921;  214,835; 1481,683;47,84209
1078,61;  802,690;  213,142; 1458,606;47,33564
1079,15;  783,383;  207,681; 1419,144;47,52120
1079,69;  791,921;  208,296; 1424,990;47,96809
1080,23;  811,998;  230,988; 1413,760;49,12274
1080,77;  815,921;  245,604; 1413,760;48,82203
1081,31;  765,537;  204,758; 1351,913;48,88428
1081,85;  775,690;  225,142; 1354,452;48,75085
1082,39;  763,537;  201,758; 1340,375;49,33869
1082,93;  758,844;  214,988; 1322,606;49,10141
1083,47;  729,306;  196,758; 1280,760;49,12796
1084,01;  734,306;  230,296; 1305,606;46,87112
1084,55;  729,152;  205,065; 1266,837;49,35965
1085,09;  738,690;  222,604; 1277,067;48,94305
1085,63;  722,921;  225,527; 1236,990;49,17570
1086,17;  702,306;  208,373; 1242,144;47,77969
1086,71;  695,383;  212,296; 1212,606;48,29370
1087,24;  706,152;  227,527; 1220,221;48,21475
1087,78;  708,383;  225,219; 1196,452;49,74745
1088,32;  665,460;  205,527; 1174,990;47,44198
1088,86;  690,690;  236,450; 1189,375;47,66801
1089,40;  670,229;  215,296; 1155,067;48,40888
1089,94;  643,537;  190,835; 1110,606;49,21897
1090,48;  662,921;  223,912; 1137,606;48,04776
1091,02;  669,921;  229,604; 1114,452;49,76191
1091,56;  655,152;  216,604; 1115,375;48,79419
1092,10;  616,998;  199,604; 1081,375;47,33589
1092,63;  651,613;  237,988; 1115,913;47,11393
1093,17;  639,921;  218,219; 1071,913;49,39730
1093,71;  617,229;  201,912; 1049,375;49,00710
1094,25;  637,306;  229,604; 1056,375;49,31255
1094,79;  606,844;  220,142; 1041,529;47,07916
1095,33;  616,383;  217,373; 1013,298;50,13156
1095,87;  603,383;  212,912; 1008,221;49,09675
1096,40;  577,229;  203,527;  978,606;48,21470
1096,94;  602,613;  224,988;  976,837;50,22624
1097,48;  577,383;  214,065;  965,144;48,37273
1098,02;  574,690;  212,912;  961,067;48,35609
1098,56;  544,383;  190,835;  918,683;48,57443
1099,10;  551,998;  188,527;  904,529;50,76399
1099,63;  540,229;  190,604;  898,837;49,36584
1100,17;  564,998;  209,142;  930,760;49,31364
1100,71;  579,613;  225,142;  925,067;50,64416

